Time	Frequency
-0.5000370207499998	0.41240284850785214
-0.4999759855937498	0.416889189222456
-0.4999149504374998	0.42123450367782567
-0.4998539152812498	0.42547026488701034
-0.4997928801249998	0.4296303929690236
-0.4997318449687498	0.4336661352846366
-0.4996708098124998	0.43756317368847825
-0.4996097746562498	0.44137312595602207
-0.4995487394999998	0.44508449787519494
-0.4994877043437498	0.4486491312130503
-0.4994266691874998	0.45209728185749193
-0.4993656340312498	0.4554603976817922
-0.4993045988749998	0.4586923586603235
-0.4992435637187498	0.4617805343875523
-0.4991825285624998	0.4647737799668848
-0.4991214934062498	0.4676606740777723
-0.4990604582499998	0.4703962355270755
-0.4989994230937498	0.4730098402148224
-0.4989383879374998	0.4755307681621919
-0.4988773527812498	0.47791521445200424
-0.4988163176249998	0.4801522173018314
-0.4987552824687498	0.4822881865183159
-0.4986942473124998	0.48431159564872706
-0.4986332121562498	0.4861803861992708
-0.4985721769999998	0.48792332234054536
-0.4985111418437498	0.48956764509233563
-0.4984501066874998	0.4910715999459656
-0.4983890715312498	0.4924259491174468
-0.4983280363749998	0.49367490317664814
-0.4982670012187498	0.49480667327353844
-0.4982059660624998	0.4957820409439868
-0.4981449309062498	0.49662943809219107
-0.4980838957499998	0.49737399463046017
-0.4980228605937498	0.4979756839286011
-0.4979618254374998	0.49842719703571764
-0.4979007902812498	0.4987708533952122
-0.4978397551249998	0.4989943108748356
-0.4977787199687498	0.49906098236013335
-0.4977176848124998	0.49899936888798674
-0.4976566496562498	0.49883256466672043
-0.4975956144999998	0.49852181521240435
-0.4975345793437498	0.49806186346914755
-0.4974735441874998	0.4974935629111747
-0.4974125090312498	0.4968037039748211
-0.4973514738749998	0.49595806368869483
-0.4972904387187498	0.4949856821791303
-0.4972294035624998	0.49390767368788585
-0.4971683684062498	0.4926860432656371
-0.4971073332499998	0.49131777914287833
-0.4970462980937498	0.48984272129200407
-0.4969852629374998	0.4882463345598075
-0.4969242277812498	0.4864964109482426
-0.4968631926249998	0.48462319461175735
-0.4968021574687498	0.4826460128338111
-0.4967411223124998	0.480526853578756
-0.4966800871562498	0.4782649688064884
-0.4966190519999998	0.47589994546396464
-0.4965580168437498	0.4734157179107142
-0.4964969816874998	0.47078154658310817
-0.4964359465312498	0.46802915245064036
-0.4963749113749998	0.465176189272119
-0.4963138762187498	0.4621843463572087
-0.4962528410624998	0.4590554502327876
-0.4961918059062498	0.45582904764709287
-0.4961307707499998	0.4524868693627595
-0.4960697355937498	0.44899946313753125
-0.4960087004374998	0.44540095442841465
-0.4959476652812498	0.441707491859924
-0.4958866301249998	0.43787941764701477
-0.4958255949687498	0.4339210355860196
-0.4957645598124998	0.4298727967624083
-0.4957035246562498	0.42571410162454154
-0.4956424894999998	0.42141606922218
-0.4955814543437498	0.41701550358161416
-0.4955204191874998	0.4125273336043476
-0.4954593840312498	0.4079101437549423
-0.4953983488749998	0.40317078817085705
-0.4953373137187498	0.3983510341185195
-0.4952762785624998	0.39342767605058504
-0.4952152434062498	0.38837217665591706
-0.4951542082499998	0.3832244054371284
-0.4950931730937498	0.37799796731231783
-0.4950321379374998	0.372649118604911
-0.4949711027812498	0.3671876036889286
-0.4949100676249998	0.3616571108543992
-0.4948490324687498	0.3560311064718344
-0.4947879973124998	0.350280650839062
-0.4947269621562498	0.34444964108333137
-0.4946659269999998	0.3385511833130696
-0.4946048918437498	0.33253827426680266
-0.4945438566874998	0.32642292227417774
-0.4944828215312498	0.3202514902135839
-0.4944217863749998	0.3139942769516272
-0.4943607512187498	0.30762125555339903
-0.4942997160624998	0.30118049417933923
-0.4942386809062498	0.29468495605903355
-0.4941776457499998	0.2880837748889855
-0.4941166105937498	0.28139114612907373
-0.4940555754374998	0.27465707293674285
-0.4939945402812498	0.2678484995068194
-0.4939335051249998	0.2609332594707845
-0.4938724699687498	0.2539641915230254
-0.4938114348124998	0.24695506353719324
-0.4937503996562498	0.23984995209539098
-0.4936893644999998	0.2326643376598113
-0.4936283293437498	0.22545327778061794
-0.4935672941874998	0.2181806667572902
-0.4935062590312498	0.21081063721635424
-0.4934452238749998	0.2034012649399918
-0.4933841887187498	0.1959685027552324
-0.4933231535624998	0.18845027779062523
-0.4932621184062498	0.18086259427418913
-0.4932010832499998	0.17326712040030773
-0.4931400480937498	0.1656246691155196
-0.4930790129374998	0.1578936697382151
-0.4930179777812498	0.15013791231365423
-0.4929569426249998	0.14237736761644904
-0.4928959074687498	0.1345426501496271
-0.4928348723124998	0.12664880342541204
-0.4927738371562498	0.11876580897154893
-0.4927128019999998	0.11085236646679604
-0.4926517668437498	0.10285943186752636
-0.4925907316874998	0.09485638213084116
-0.4925296965312498	0.08686868490604609
-0.4924686613749998	0.07881857607006207
-0.4924076262187498	0.07071888248591685
-0.4923465910624998	0.06264971801382128
-0.4922855559062498	0.05456817333762181
-0.4922245207499998	0.046415419517137776
-0.4921634855937498	0.03826675112933139
-0.4921024504374998	0.03015547879326916
-0.4920414152812498	0.021994609909587275
-0.4919803801249998	0.013792773268667728
-0.4919193449687498	0.005641195251938593
-0.4918583098124998	-0.00250330147138482
-0.4917972746562498	-0.01071066122385398
-0.4917362394999998	-0.018900716123173966
-0.4916752043437498	-0.02703069556417382
-0.4916141691874998	-0.035196140554617075
-0.4915531340312498	-0.04339455598428859
-0.4914920988749998	-0.051523858795422824
-0.4914310637187498	-0.059625423439661825
-0.4913700285624998	-0.06778061625351683
-0.4913089934062498	-0.07590657008785684
-0.4912479582499998	-0.08395035362615473
-0.4911869230937498	-0.09201415044439701
-0.4911258879374998	-0.10010288318680632
-0.4910648527812498	-0.1081051588141837
-0.4910038176249998	-0.11605867376544338
-0.4909427824687498	-0.12405512506627503
-0.4908817473124998	-0.13201148080622888
-0.4908207121562498	-0.1398653928513082
-0.4907596769999998	-0.14772273063058336
-0.4906986418437498	-0.15559591958229677
-0.4906376066874998	-0.16336760785567878
-0.4905765715312498	-0.17107048410481093
-0.4905155363749998	-0.17880343266720805
-0.4904545012187498	-0.186486190597319
-0.4903934660624998	-0.19404925556982594
-0.4903324309062498	-0.20159801020026877
-0.4902713957499998	-0.20915156502182428
-0.4902103605937498	-0.21659140372324417
-0.4901493254374998	-0.2239446789117182
-0.4900882902812498	-0.2313129590652809
-0.4900272551249998	-0.23862061700088746
-0.4899662199687498	-0.24579468256271492
-0.4899051848124998	-0.2529371003713773
-0.4898441496562498	-0.26007142492449137
-0.4897831144999998	-0.26708185132101264
-0.4897220793437498	-0.27399068879221694
-0.4896610441874998	-0.2808981533311744
-0.4896000090312498	-0.2877341160749829
-0.4895389738749998	-0.29442559407303737
-0.4894779387187498	-0.3010690161250507
-0.4894169035624998	-0.3076900151358704
-0.4893558684062498	-0.31417833389230887
-0.4892948332499998	-0.3205526608754344
-0.4892337980937498	-0.32690890885326834
-0.4891727629374998	-0.33318255344399805
-0.4891117277812498	-0.3393035732108621
-0.4890506926249998	-0.34536195194287495
-0.4889896574687498	-0.35138293660128045
-0.4889286223124998	-0.3572631570241873
-0.4888675871562498	-0.3630192666619952
-0.4888065519999998	-0.36874144297743194
-0.4887455168437498	-0.37436992373881567
-0.4886844816874998	-0.379838920526394
-0.4886234465312498	-0.38523241742101033
-0.4885624113749998	-0.39057439095730956
-0.4885013762187498	-0.39576842964386055
-0.4884403410624998	-0.4008300168001714
-0.4883793059062498	-0.4058433592557205
-0.4883182707499998	-0.4107527714554528
-0.4882572355937498	-0.41549697114430045
-0.4881962004374998	-0.42015432470488023
-0.4881351652812498	-0.4247472202343595
-0.4880741301249998	-0.4291859300242138
-0.4880130949687498	-0.4334850901286451
-0.4879520598124998	-0.43772336661191363
-0.4878910246562498	-0.44184895456989337
-0.4878299894999998	-0.4458046804726005
-0.4877689543437498	-0.4496636814123651
-0.4877079191874998	-0.453447226823175
-0.4876468840312498	-0.45707179111279955
-0.4875858488749998	-0.4605507307136354
-0.4875248137187498	-0.46395756848225383
-0.4874637785624998	-0.4672446263038706
-0.4874027434062498	-0.47035860193169404
-0.4873417082499998	-0.47336738874629253
-0.4872806730937498	-0.476291276707896
-0.4872196379374998	-0.479052901093823
-0.4871586027812498	-0.481664429821702
-0.4870975676249998	-0.48419443806393664
-0.4870365324687498	-0.48659919964748266
-0.4869754973124998	-0.4888290397330539
-0.4869144621562498	-0.4909468385291346
-0.4868534269999998	-0.492972100269006
-0.4867923918437498	-0.49483335533286243
-0.4867313566874998	-0.49654150866486896
-0.4866703215312498	-0.4981604140752496
-0.4866092863749998	-0.49965026410715274
-0.4865482512187498	-0.5009650246161936
-0.4864872160624998	-0.5021627618084908
-0.4864261809062498	-0.5032619689190969
-0.4863651457499998	-0.5041969262790689
-0.4863041105937498	-0.5049777510241347
-0.4862430754374998	-0.5056635416153584
-0.4861820402812498	-0.5062177714532411
-0.4861210051249998	-0.5065982582515105
-0.4860599699687498	-0.5068589138653633
-0.4859989348124998	-0.5070168891381845
-0.4859378996562498	-0.5070116004061185
-0.4858768644999998	-0.5068528527861578
-0.4858158293437498	-0.5065955750371961
-0.4857547941874998	-0.5062059237163615
-0.4856937590312498	-0.5056452127027714
-0.4856327238749998	-0.5049639066086934
-0.4855716887187498	-0.5041777654021402
-0.4855106535624998	-0.5032307086177366
-0.4854496184062498	-0.5021326891753467
-0.4853885832499998	-0.5009348137960697
-0.4853275480937498	-0.49960520233365086
-0.4852665129374998	-0.4981086273152281
-0.4852054777812498	-0.49649288489516613
-0.4851444426249998	-0.49477216176936145
-0.4850834074687498	-0.4928941547806688
-0.4850223723124998	-0.49086930185241895
-0.4849613371562498	-0.4887455289791851
-0.4849003019999998	-0.4864924672315642
-0.4848392668437498	-0.4840778610079141
-0.4847782316874998	-0.4815473504133308
-0.4847171965312498	-0.47891377320899897
-0.4846561613749998	-0.4761280819932665
-0.4845951262187498	-0.47320123829477606
-0.4845340910624998	-0.4701784114569786
-0.4844730559062498	-0.46703045290608947
-0.4844120207499998	-0.46372776494798734
-0.4843509855937498	-0.46031424938542753
-0.4842899504374998	-0.4568015335658013
-0.4842289152812498	-0.4531433970683347
-0.4841678801249998	-0.4493513445998036
-0.4841068449687498	-0.4454680365216964
-0.4840458098124998	-0.4414654365079782
-0.4839847746562498	-0.43731666125356145
-0.4839237394999998	-0.43306397840845245
-0.4838627043437498	-0.42871746096814145
-0.4838016691874998	-0.42423355033966703
-0.4837406340312498	-0.4196246262841897
-0.4836795988749998	-0.41493092678486293
-0.4836185637187498	-0.41012519932992075
-0.4835575285624998	-0.40518327527327735
-0.4834964934062498	-0.4001461281732397
-0.4834354582499998	-0.39502215142214686
-0.4833744230937498	-0.3897701894998624
-0.4833133879374998	-0.3844038507712845
-0.4832523527812498	-0.37896104540263614
-0.4831913176249998	-0.37341463460666763
-0.4831302824687498	-0.3677430520270538
-0.4830692473124998	-0.36198661108050434
-0.4830082121562498	-0.3561519846433967
-0.4829471769999998	-0.3501998971405337
-0.4828861418437498	-0.3441453811121623
-0.4828251066874998	-0.33802433443835983
-0.4827640715312498	-0.33180940130133163
-0.4827030363749998	-0.3254815924913083
-0.4826420012187498	-0.31908098780101213
-0.4825809660624998	-0.3126121752342631
-0.4825199309062498	-0.3060371910894867
-0.4824588957499998	-0.2993731211861225
-0.4823978605937498	-0.2926543659905479
-0.4823368254374998	-0.28585243052672177
-0.4822757902812498	-0.278950381023129
-0.4822147551249998	-0.2719889106326849
-0.4821537199687498	-0.2649707960369061
-0.4820926848124998	-0.2578587651076809
-0.4820316496562498	-0.25067195093015054
-0.4819706144999998	-0.24344344125408005
-0.4819095793437498	-0.2361434217420597
-0.4818485441874998	-0.22875737839958582
-0.4817875090312498	-0.2213269464634657
-0.4817264738749998	-0.2138522276043655
-0.4816654387187498	-0.20629593805905933
-0.4816044035624998	-0.19868014858396982
-0.4815433684062498	-0.1910374025793339
-0.4814823332499998	-0.18333557546499335
-0.4814212980937498	-0.17556177893998706
-0.4813602629374998	-0.1677594295044623
-0.4812992277812498	-0.1599265527188997
-0.4812381926249998	-0.15202544610430616
-0.4811771574687498	-0.14408097530831368
-0.4811161223124998	-0.136125105639479
-0.4810550871562498	-0.12812291222708733
-0.4809940519999998	-0.12006327098899632
-0.4809330168437498	-0.11199213116249
-0.4808719816874998	-0.1039050399473244
-0.4808109465312498	-0.09576296615499988
-0.4807499113749998	-0.0875939832700041
-0.4806888762187498	-0.07943010745763861
-0.4806278410624998	-0.07123325799143679
-0.4805668059062498	-0.06299391433458904
-0.4805057707499998	-0.054760938904639865
-0.4804447355937498	-0.046527050716310296
-0.4803837004374998	-0.03825118382459694
-0.4803226652812498	-0.029965212911641077
-0.4802616301249998	-0.02170196501431988
-0.4802005949687498	-0.01341928825023929
-0.4801395598124998	-0.0051086093059366025
-0.4800785246562498	0.0031772871317635415
-0.4800174894999998	0.011448184616912091
-0.4799564543437498	0.019748217097736262
-0.4798954191874998	0.028041756486942
-0.4798343840312498	0.036294255993080865
-0.4797733488749998	0.04455240417733153
-0.4797123137187498	0.05282480915661317
-0.4796512785624998	0.061054034637744066
-0.4795902434062498	0.06925168311319291
-0.4795292082499998	0.07746578712099064
-0.4794681730937498	0.08565706756693806
-0.4794071379374998	0.09378851665218337
-0.4793461027812498	0.10191193802828002
-0.4792850676249998	0.1100366570959372
-0.4792240324687498	0.1180994617608114
-0.4791629973124998	0.12611341610396043
-0.4791019621562498	0.1341324457197553
-0.4790409269999998	0.14211376184187674
-0.4789798918437498	0.1500155291136842
-0.4789188566874998	0.15789507428787786
-0.4788578215312498	0.16576444734606233
-0.4787967863749998	0.17355356509974584
-0.4787357512187498	0.1812759036136454
-0.4786747160624998	0.188992930142277
-0.4786136809062498	0.19665842761435715
-0.4785526457499998	0.20422394672627914
-0.4784916105937498	0.2117532399896948
-0.4784305754374998	0.21926310911330393
-0.4783695402812498	0.22667521604002386
-0.4783085051249998	0.23400162396759955
-0.4782474699687498	0.24131308510035085
-0.4781864348124998	0.2485610199575565
-0.4781253996562498	0.2556883725995398
-0.4780643644999998	0.26276554562758797
-0.4780033293437498	0.26981619129754303
-0.4779422941874998	0.2767522954030072
-0.4778812590312498	0.2835828851985742
-0.4778202238749998	0.2903903811274608
-0.4777591887187498	0.297124869420407
-0.4776981535624998	0.3037181152578382
-0.4776371184062498	0.3102468216925081
-0.4775760832499998	0.3167438195726132
-0.4775150480937498	0.32311122180808316
-0.4774540129374998	0.32935312070790324
-0.4773929777812498	0.3355644376972917
-0.4773319426249998	0.3416955889745034
-0.4772709074687498	0.34766592111345634
-0.4772098723124998	0.35355718197000424
-0.4771488371562498	0.35941297334300043
-0.4770878019999998	0.3651264057592936
-0.4770267668437498	0.3706948141564685
-0.4769657316874998	0.37622517979933173
-0.4769046965312498	0.3816704070639057
-0.4768436613749998	0.3869374040984156
-0.4767826262187498	0.3921106036867702
-0.4767215910624998	0.39724523321707905
-0.4766605559062498	0.4022279785736477
-0.4765995207499998	0.40704781537939544
-0.4765384855937498	0.41182132852921505
-0.4764774504374998	0.41650624605887837
-0.4764164152812498	0.42099909929018314
-0.4763553801249998	0.42538391258276204
-0.4762943449687498	0.42972626050006607
-0.4762333098124998	0.43391027094491463
-0.4761722746562498	0.4379166410377007
-0.4761112394999998	0.44186740601344604
-0.4760502043437498	0.44572682560119087
-0.4759891691874998	0.44938504515190436
-0.4759281340312498	0.4529223520910341
-0.4758670988749998	0.4564116147575945
-0.4758060637187498	0.45973890177978693
-0.4757450285624998	0.46287816792884295
-0.4756839934062498	0.46595178675990157
-0.4756229582499998	0.4689307701890465
-0.4755619230937498	0.4717039879814764
-0.4755008879374998	0.47434610222497137
-0.4754398527812498	0.47693303985200286
-0.4753788176249998	0.479356299339653
-0.4753177824687498	0.4815859678005808
-0.4752567473124998	0.4837403610576871
-0.4751957121562498	0.48579611077578494
-0.4751346769999998	0.4876452942239747
-0.4750736418437498	0.48935634992755445
-0.4750126066874998	0.4910043213802512
-0.4749515715312498	0.49248805053758177
-0.4748905363749998	0.4937767978091086
-0.4748295012187498	0.49498221120981306
-0.4747684660624998	0.49608469587869664
-0.4747074309062498	0.49698245762240917
-0.4746463957499998	0.49773846266843574
-0.4745853605937498	0.4984241488453365
-0.4745243254374998	0.49894587310829724
-0.4744632902812498	0.4992742352904213
-0.4744022551249998	0.4995134262196237
-0.4743412199687498	0.49964610252326735
-0.4742801848124998	0.499577624333585
-0.4742191496562498	0.4993664707464154
-0.4741581144999998	0.4990795101492677
-0.4740970793437498	0.4986300573530873
-0.4740360441874998	0.4979909194880491
-0.4739750090312498	0.49725915281048594
-0.4739139738749998	0.4964189384384325
-0.4738529387187498	0.49538263228635043
-0.4737919035624998	0.49420482189237835
-0.4737308684062498	0.4929478280998301
-0.4736698332499998	0.4915313866058074
-0.4736087980937498	0.4899305682689897
-0.4735477629374998	0.48823584435896045
-0.4734867277812498	0.4864328158999487
-0.4734256926249998	0.4844402129237145
-0.4733646574687498	0.48230890032488133
-0.4733036223124998	0.4800973404999844
-0.4732425871562498	0.47773142425985893
-0.4731815519999998	0.4751878584739824
-0.4731205168437498	0.4725508856695662
-0.4730594816874998	0.46980789659455907
-0.4729984465312498	0.46688359667336593
-0.4729374113749998	0.4638250317172144
-0.4728763762187498	0.46068707247907886
-0.4728153410624998	0.4574016607339695
-0.4727543059062498	0.45394704872623587
-0.4726932707499998	0.45040140834629405
-0.4726322355937498	0.4467538785380172
-0.4725712004374998	0.4429349711123809
-0.4725101652812498	0.4389879960264125
-0.4724491301249998	0.434964358183384
-0.4723880949687498	0.43080184964382723
-0.4723270598124998	0.4264801607277087
-0.4722660246562498	0.4220716930267821
-0.4722049894999998	0.41756733733615686
-0.4721439543437498	0.4129031546222768
-0.4720829191874998	0.40811890190736605
-0.4720218840312498	0.4032624489800132
-0.4719608488749998	0.3982770406844773
-0.4718998137187498	0.3931441972770581
-0.4718387785624998	0.38793077424265127
-0.4717777434062498	0.38262870377484964
-0.4717167082499998	0.3771796301550087
-0.4716556730937498	0.371620562787732
-0.4715946379374998	0.3659956888804599
-0.4715336027812498	0.3602528374533858
-0.4714725676249998	0.35437541797024863
-0.4714115324687498	0.3484256354648972
-0.4713504973124998	0.34239620784511166
-0.4712894621562498	0.3362334677190763
-0.4712284269999998	0.3299722784191809
-0.4711673918437498	0.32365367146215174
-0.4711063566874998	0.3172293363233095
-0.4710453215312498	0.3106847289672015
-0.4709842863749998	0.3040778802086928
-0.4709232512187498	0.2974014835114993
-0.4708622160624998	0.2906062426843637
-0.4708011809062498	0.28372568652696173
-0.4707401457499998	0.27679767223604174
-0.4706791105937498	0.26977692063977304
-0.4706180754374998	0.26265107783502145
-0.4705570402812498	0.25547484997249015
-0.4704960051249998	0.2482407130214201
-0.4704349699687498	0.24090295505266274
-0.4703739348124998	0.23349404039755664
-0.4703128996562498	0.2260492287895972
-0.4702518644999998	0.21852584140450018
-0.4701908293437498	0.21091331362045196
-0.4701297941874998	0.20326341223557526
-0.4700687590312498	0.19556838488092895
-0.4700077238749998	0.18778572552439546
-0.4699466887187498	0.17994720860166696
-0.4698856535624998	0.17208572419308213
-0.4698246184062498	0.16416052995027994
-0.4697635832499998	0.15616267806831774
-0.4697025480937498	0.14814143524067652
-0.4696415129374998	0.14008878046791914
-0.4695804777812498	0.13196525578485244
