Time	Frequency
-0.5000152583125015	-0.5832546463790252
-0.4999542231562515	-0.5853319163325889
-0.4998931880000015	-0.5872031427299685
-0.4998321528437515	-0.5889706551057485
-0.4997711176875015	-0.5905614767362328
-0.4997100825312515	-0.5918246105278314
-0.4996490473750015	-0.5927286155525178
-0.4995880122187515	-0.5933999102168657
-0.4995269770625015	-0.5939544277290334
-0.4994659419062515	-0.5943458825621216
-0.4994049067500015	-0.5944286773916588
-0.4993438715937515	-0.594149774180955
-0.4992828364375015	-0.5936164366942093
-0.4992218012812515	-0.5929531976041318
-0.4991607661250015	-0.5921388194048075
-0.4990997309687515	-0.5910370278407145
-0.4990386958125015	-0.5895773615902319
-0.4989776606562515	-0.5878467761072514
-0.4989166255000015	-0.5859737283736842
-0.4988555903437515	-0.5839600973425311
-0.4987945551875015	-0.5816818801105249
-0.4987335200312515	-0.5790549092311287
-0.4986724848750015	-0.5761456858651837
-0.4986114497187515	-0.5730829941864855
-0.4985504145625015	-0.569889555890204
-0.4984893794062515	-0.5664556514374803
-0.4984283442500015	-0.5626868260895517
-0.4983673090937515	-0.5586293266675714
-0.4983062739375015	-0.5544092377012397
-0.4982452387812515	-0.5500679416815988
-0.4981842036250015	-0.5455112633792156
-0.4981231684687515	-0.5406374099071722
-0.4980621333125015	-0.5354732007804387
-0.4980010981562515	-0.530139626318198
-0.4979400630000015	-0.5246943605569204
-0.4978790278437515	-0.519059591235227
-0.4978179926875015	-0.5131289482888757
-0.4977569575312515	-0.5069109117238043
-0.4976959223750015	-0.50051939666578
-0.4976348872187515	-0.4940257014058455
-0.4975738520625015	-0.4873685942526441
-0.4975128169062515	-0.4804401008457788
-0.4974517817500015	-0.47323178447292963
-0.4973907465937515	-0.4658483245479734
-0.4973297114375015	-0.4583723346654756
-0.4972686762812515	-0.4507599454136353
-0.4972076411250015	-0.4429037982178843
-0.4971466059687515	-0.434778866041913
-0.4970855708125015	-0.4264787881202068
-0.4970245356562515	-0.4180960765336661
-0.4969635005000015	-0.40960503946428484
-0.4969024653437515	-0.4009011021689811
-0.4968414301875015	-0.3919434613906427
-0.4967803950312515	-0.38281282588481447
-0.4967193598750015	-0.37360904898167374
-0.4966583247187515	-0.3643245638858782
-0.4965972895625015	-0.3548602381535873
-0.4965362544062515	-0.3451614868524809
-0.4964752192500015	-0.33529474811392695
-0.4964141840937515	-0.3253644573188717
-0.4963531489375015	-0.31538079734607055
-0.4962921137812515	-0.3052522593150357
-0.4962310786250015	-0.2949120000427511
-0.4961700434687515	-0.28441108388361
-0.4961090083125015	-0.2738561706329147
-0.4960479731562515	-0.26327452220493
-0.4959869380000015	-0.25258435842374705
-0.4959259028437515	-0.24170880254651528
-0.4958648676875015	-0.2306826357863147
-0.4958038325312515	-0.21961173869610973
-0.4957427973750015	-0.2085394668566555
-0.4956817622187515	-0.19739607014741586
-0.4956207270625015	-0.18609704767146712
-0.4955596919062515	-0.17466018346819046
-0.4954986567500015	-0.16318758275180315
-0.4954376215937515	-0.1517373820177143
-0.4953765864375015	-0.1402540189210424
-0.4953155512812515	-0.12864794638353835
-0.4952545161250015	-0.1169194939590968
-0.4951934809687515	-0.1051642109189259
-0.4951324458125015	-0.09345313418673255
-0.4950714106562515	-0.08174597804139075
-0.4950103755000015	-0.06995115572843606
-0.4949493403437515	-0.05805260779756173
-0.4948883051875015	-0.04613672519582454
-0.4948272700312515	-0.03428502845069276
-0.4947662348750015	-0.022473715523608648
-0.4947051997187515	-0.01061167128989186
-0.4946441645625015	0.0013331444216913074
-0.4945831294062515	0.013285356561295158
-0.4945220942500015	0.0251552411597126
-0.4944610590937515	0.03695024264645881
-0.4944000239375015	0.048758447275807956
-0.4943389887812515	0.060626186263269585
-0.4942779536250015	0.07249081187140632
-0.4942169184687515	0.0842567256821015
-0.4941558833125015	0.0959145148400592
-0.4940948481562515	0.1075468701444764
-0.4940338130000015	0.11921353316706
-0.4939727778437515	0.13086644948275175
-0.4939117426875015	0.14240668834064152
-0.4938507075312515	0.15380824114463648
-0.4937896723750015	0.1651459032452009
-0.4937286372187515	0.1764905151371085
-0.4936676020625015	0.18780953752772606
-0.4936065669062515	0.19900376324298294
-0.4935455317500015	0.21003172211482396
-0.4934844965937515	0.22095824469274963
-0.4934234614375015	0.23186318232066433
-0.4933624262812515	0.24273022837002284
-0.4933013911250015	0.2534622419381023
-0.4932403559687515	0.2640031239038106
-0.4931793208125015	0.2744060100850189
-0.4931182856562515	0.28475771188973914
-0.4930572505000015	0.2950585140638931
-0.4929962153437515	0.3052157754240175
-0.4929351801875015	0.31516021076531575
-0.4928741450312515	0.32493196954309705
-0.4928131098750015	0.33462284972479717
-0.4927520747187515	0.3442501479096475
-0.4926910395625015	0.35372795366099885
-0.4926300044062515	0.3629741961513806
-0.4925689692500015	0.37201357481494096
-0.4925079340937515	0.38094092029756027
-0.4924468989375015	0.38979188745897936
-0.4923858637812515	0.39849039574870876
-0.4923248286250015	0.4069429893673016
-0.4922637934687515	0.4151572892740119
-0.4922027583125015	0.4232284129216935
-0.4921417231562515	0.43120979001180243
-0.4920806880000015	0.43903758244917723
-0.4920196528437515	0.4466090608510129
-0.4919586176875015	0.45391349730950203
-0.4918975825312515	0.46104349058232635
-0.4918365473750015	0.4680699889318439
-0.4917755122187515	0.4749441371801014
-0.4917144770625015	0.4815560859653412
-0.4916534419062515	0.48787547164617784
-0.4915924067500015	0.4939892672264461
-0.4915313715937515	0.49998529298269406
-0.4914703364375015	0.5058325812286427
-0.4914093012812515	0.5114167443448913
-0.4913482661250015	0.5166866014398517
-0.4912872309687515	0.521720044054744
-0.4912261958125015	0.526620371817293
-0.4911651606562515	0.531377214461907
-0.4911041255000015	0.5358752677039781
-0.4910430903437515	0.5400420806165718
-0.4909820551875015	0.5439423694357411
-0.4909210200312515	0.5476929686038872
-0.4908599848750015	0.5513070135354191
-0.4907989497187515	0.5546720744589643
-0.4907379145625015	0.5576941928714075
-0.4906768794062515	0.5604207824472053
-0.4906158442500015	0.5629792779994379
-0.4905548090937515	0.5654087009415277
-0.4904937739375015	0.5676045474751554
-0.4904327387812515	0.569452445391521
-0.4903717036250015	0.5709780512051296
-0.4903106684687515	0.5723151854532507
-0.4902496333125015	0.5735302471565915
-0.4901885981562515	0.5745320085637847
-0.4901275630000015	0.5751880260929748
-0.4900665278437515	0.5754982790693829
-0.4900054926875015	0.5755977293747634
-0.4899444575312515	0.5755806514098785
-0.4898834223750015	0.5753749823062717
-0.4898223872187515	0.5748338753218816
-0.4897613520625015	0.5739281775489856
-0.4897003169062515	0.5727876578890363
-0.4896392817500015	0.5715333386874695
-0.4895782465937515	0.5701180247560839
-0.4895172114375015	0.5683858130819412
-0.4894561762812515	0.5662764502094005
-0.4893951411250015	0.5639076422937268
-0.4893341059687515	0.5614243045613191
-0.4892730708125015	0.5588091483104417
-0.4892120356562515	0.5559037141099493
-0.4891510005000015	0.5526160171468204
-0.4890899653437515	0.5490445276326167
-0.4890289301875015	0.5453535686520128
-0.4889678950312515	0.5415597783918814
-0.4889068598750015	0.5375095994746838
-0.4888458247187515	0.5330808543761392
-0.4887847895625015	0.5283463223956654
-0.4887237544062515	0.5234831738095315
-0.4886627192500015	0.5185438080372194
-0.4886016840937515	0.5133878743383888
-0.4885406489375015	0.5078670829995569
-0.4884796137812515	0.5020227517611425
-0.4884185786250015	0.49603646780903404
-0.4883575434687515	0.4899961286023788
-0.4882965083125015	0.4837829615646329
-0.4882354731562515	0.4772289852376804
-0.4881744380000015	0.47034031931870807
-0.4881134028437515	0.4632938414230079
-0.4880523676875015	0.45621015640043483
-0.4879913325312515	0.4489989703162277
-0.4879302973750015	0.44147999237811136
-0.4878692622187515	0.4336226607435092
-0.4878082270625015	0.4255909028411417
-0.4877471919062515	0.41753334497099565
-0.4876861567500015	0.40939308296897875
-0.4876251215937515	0.40098615905854534
-0.4875640864375015	0.39224653029763146
-0.4875030512812515	0.3833169318022187
-0.4874420161250015	0.3743666023504903
-0.4873809809687515	0.3653749110782008
-0.4873199458125015	0.35616390497723865
-0.4872589106562515	0.3466361957481402
-0.4871978755000015	0.3369067051842531
-0.4871368403437515	0.3271566258051191
-0.4870758051875015	0.31740164218676514
-0.4870147700312515	0.30747790504426614
-0.4869537348750015	0.29726268836972325
-0.4868926997187515	0.2868395362070171
-0.4868316645625015	0.2763928417262088
-0.4867706294062515	0.2659721307785298
-0.4867095942500015	0.25543448203925895
-0.4866485590937515	0.24463844210303407
-0.4865875239375015	0.2336341961553077
-0.4865264887812515	0.22260162282966656
-0.4864654536250015	0.21162010498499428
-0.4864044184687515	0.20057273561853073
-0.4863433833125015	0.18930769330701097
-0.4862823481562515	0.17784255355231351
-0.4862213130000015	0.1663446473481968
-0.4861602778437515	0.1549166123159591
-0.4860992426875015	0.14346988503165467
-0.4860382075312515	0.1318496621364365
-0.4859771723750015	0.12004416140567535
-0.4859161372187515	0.10820381159841519
-0.4858551020625015	0.09644864266867201
-0.4857940669062515	0.0847189017333852
-0.4857330317500015	0.0728628578821033
-0.4856719965937515	0.06084281511307896
-0.4856109614375015	0.04878861807709526
-0.4855499262812515	0.03683162394851582
-0.4854888911250015	0.02493947738772856
-0.4854278559687515	0.012967736716696297
-0.4853668208125015	0.0008575434975821316
-0.4853057856562515	-0.011282181834672753
-0.4852447505000015	-0.023313778429715833
-0.4851837153437515	-0.03524481463354245
-0.4851226801875015	-0.04720880555734696
-0.4850616450312515	-0.05928162530036416
-0.4850006098750015	-0.07137672780409766
-0.4849395747187515	-0.08335484367925078
-0.4848785395625015	-0.09520064451810092
-0.4848175044062515	-0.10703381890161306
-0.4847564692500015	-0.11894317954062997
-0.4846954340937515	-0.13086443045275414
-0.4846343989375015	-0.14266068727109793
-0.4845733637812515	-0.15429652809971384
-0.4845123286250015	-0.1658761195934291
-0.4844512934687515	-0.17749777090041857
-0.4843902583125015	-0.18911864783863258
-0.4843292231562515	-0.20060691200599315
-0.4842681880000015	-0.21190976969117234
-0.4842071528437515	-0.22311516566390371
-0.4841461176875015	-0.23432780352131496
-0.4840850825312515	-0.2455249199034497
-0.4840240473750015	-0.2565816577998411
-0.4839630122187515	-0.26743055235816116
-0.4839019770625015	-0.27814357286881397
-0.4838409419062515	-0.28882959108434486
-0.4837799067500015	-0.29948454226749444
-0.4837188715937515	-0.3099922268272095
-0.4836578364375015	-0.3202726387585652
-0.4835968012812515	-0.33038072114658734
-0.4835357661250015	-0.34042661841558836
-0.4834747309687515	-0.3504245626114132
-0.4834136958125015	-0.36026971961083015
-0.4833526606562515	-0.36987184166387294
-0.4832916255000015	-0.3792682807457223
-0.4832305903437515	-0.3885681585008927
-0.4831695551875015	-0.3978028134101189
-0.4831085200312515	-0.40688000724497037
-0.4830474848750015	-0.4157011996275972
-0.4829864497187515	-0.4242861190608199
-0.4829254145625015	-0.43274077808836714
-0.4828643794062515	-0.44111246676484883
-0.4828033442500015	-0.4493232408201859
-0.4827423090937515	-0.45726869761304667
-0.4826812739375015	-0.46495090110863696
-0.4826202387812515	-0.4724703265058477
-0.4825592036250015	-0.4798885576163466
-0.4824981684687515	-0.48714334764193656
-0.4824371333125015	-0.49412719507245645
-0.4823760981562515	-0.5008248427011177
-0.4823150630000015	-0.5073286857010817
-0.4822540278437515	-0.5137128165863352
-0.4821929926875015	-0.5199320575727127
-0.4821319575312515	-0.5258784009619009
-0.4820709223750015	-0.5315197403545485
-0.4820098872187515	-0.5369380843606458
-0.4819488520625015	-0.5422178149478503
-0.4818878169062515	-0.5473318281057414
-0.4818267817500015	-0.5521748580544887
-0.4817657465937515	-0.5566991726000985
-0.4817047114375015	-0.5609740333634906
-0.4816436762812515	-0.5650913836511476
-0.4815826411250015	-0.5690424662716534
-0.4815216059687515	-0.5727275615052727
-0.4814605708125015	-0.5760851715505008
-0.4813995356562515	-0.5791702655837018
-0.4813385005000015	-0.5820793582832938
-0.4812774653437515	-0.5848217507068986
-0.4812164301875015	-0.5873061009761097
-0.4811553950312515	-0.5894592514846178
-0.4810943598750015	-0.5913206296405603
-0.4810333247187515	-0.592988486250241
-0.4809722895625015	-0.5944894283070633
-0.4809112544062515	-0.5957428064137066
-0.4808502192500015	-0.59666610775727
-0.4807891840937515	-0.5972824479557196
-0.4807281489375015	-0.5976890845188394
-0.4806671137812515	-0.5979288265018741
-0.4806060786250015	-0.5979336315350796
-0.4805450434687515	-0.5976141795640023
-0.4804840083125015	-0.5969771644252473
-0.4804229731562515	-0.5961161445440439
-0.4803619380000015	-0.5950884676820614
-0.4803009028437515	-0.5938403387577669
-0.4802398676875015	-0.5922782229677932
-0.4801788325312515	-0.5903923809594636
-0.4801177973750015	-0.5882702317039038
-0.4800567622187515	-0.5859821584825832
-0.4799957270625015	-0.5834899464665836
-0.4799346919062515	-0.5806982189423354
-0.4798736567500015	-0.5775812022885148
-0.4798126215937515	-0.5742180385271054
-0.4797515864375015	-0.5706901684129744
-0.4796905512812515	-0.5669758170903145
-0.4796295161250015	-0.5629803326237756
-0.4795684809687515	-0.5586626058359373
-0.4795074458125015	-0.554091418876314
-0.4794464106562515	-0.5493572971291734
-0.4793853755000015	-0.5444555777009225
-0.4793243403437515	-0.5392947262340249
-0.4792633051875015	-0.5338193770195877
-0.4792022700312515	-0.5280862492575974
-0.4791412348750015	-0.5221926009729612
-0.4790801997187515	-0.5161510614956248
-0.4790191645625015	-0.5098756923808273
-0.4789581294062515	-0.5032980741853339
-0.4788970942500015	-0.49646098608376393
-0.4788360590937515	-0.48946617844872786
-0.4787750239375015	-0.4823442045064977
-0.4787139887812515	-0.4750172042065802
-0.4786529536250015	-0.46740450129223116
-0.4785919184687515	-0.4595331303613788
-0.4785308833125015	-0.4515074136082058
-0.4784698481562515	-0.44337615537826003
-0.4784088130000015	-0.43507174562315526
-0.4783477778437515	-0.4265024976716277
-0.4782867426875015	-0.41767804009023407
-0.4782257075312515	-0.4087025331543892
-0.4781646723750015	-0.3996429583468535
-0.4781036372187515	-0.39044489511443664
-0.4780426020625015	-0.3810077433384391
-0.4779815669062515	-0.3713220552889601
-0.4779205317500015	-0.3614884871677544
-0.4778594965937515	-0.3515916938955222
-0.4777984614375015	-0.3415934532902345
-0.4777374262812515	-0.33138650732920744
-0.4776763911250015	-0.3209407023774955
-0.4776153559687515	-0.3103499474845071
-0.4775543208125015	-0.29971595126168604
-0.4774932856562515	-0.289019422202559
-0.4774322505000015	-0.2781490650393109
-0.4773712153437515	-0.2670529583425451
-0.4773101801875015	-0.2558144337400442
-0.4772491450312515	-0.24455064443984373
-0.4771881098750015	-0.23326428839158783
-0.4771270747187515	-0.2218437655360872
-0.4770660395625015	-0.2102147682445721
-0.4770050044062515	-0.1984458098108635
-0.4769439692500015	-0.18666708691267045
-0.4768829340937515	-0.17490585629230632
-0.4768218989375015	-0.1630542756587686
-0.4767608637812515	-0.1510156389281684
-0.4766998286250015	-0.13883939214894067
-0.4766387934687515	-0.12666564402597366
-0.4765777583125015	-0.11454843134411764
-0.4765167231562515	-0.10238889276087378
-0.4764556880000015	-0.09006923003784341
-0.4763946528437515	-0.0776150470569617
-0.4763336176875015	-0.06517185423275837
-0.4762725825312515	-0.05282209031404266
-0.4762115473750015	-0.040481161614397014
-0.4761505122187515	-0.02801206112670479
-0.4760894770625015	-0.015412077602161648
-0.4760284419062515	-0.00282663532531123
-0.4759674067500015	0.009632325233196059
-0.4759063715937515	0.02202810817366955
-0.4758453364375015	0.034512569609857616
-0.4757843012812515	0.04712055322950926
-0.4757232661250015	0.05971460081615958
-0.4756622309687515	0.07215590432155673
-0.4756011958125015	0.0844805915571508
-0.4755401606562515	0.09684885963420643
-0.4754791255000015	0.1093292095233121
-0.4754180903437515	0.12179927600116001
-0.4753570551875015	0.1340965384514676
-0.4752960200312515	0.1462248319739365
-0.4752349848750015	0.15834563463192006
-0.4751739497187515	0.17056159374919008
-0.4751129145625015	0.18277333030103954
-0.4750518794062515	0.19479989085568777
-0.4749908442500015	0.2066092185311458
-0.4749298090937515	0.21835634278354557
-0.4748687739375015	0.23017554028647816
-0.4748077387812515	0.24199666851830218
-0.4747467036250015	0.25362789165037997
-0.4746856684687515	0.26499964268480497
-0.4746246333125015	0.27625119036144213
-0.4745635981562515	0.2875438846785072
-0.4745025630000015	0.2988432291429294
-0.4744415278437515	0.30995597792964674
-0.4743804926875015	0.3207760980251638
-0.4743194575312515	0.3314184402521268
-0.4742584223750015	0.3420637727700451
-0.4741973872187515	0.35271633634771327
-0.4741363520625015	0.36319117882888785
-0.4740753169062515	0.3733493069019101
-0.4740142817500015	0.38327413461206156
-0.4739532465937515	0.39315778663803774
-0.4738922114375015	0.403044565988122
-0.4738311762812515	0.4127669685170057
-0.4737701411250015	0.4221588632114915
-0.4737091059687515	0.4312673534879182
-0.4736480708125015	0.4402859856170625
-0.4735870356562515	0.4492967084195175
-0.4735260005000015	0.4581580157770757
-0.4734649653437515	0.4666851691411314
-0.4734039301875015	0.4748865662315474
-0.4733428950312515	0.4829472980116454
-0.4732818598750015	0.49098214128744183
-0.4732208247187515	0.49888169868648546
-0.4731597895625015	0.506452173222435
-0.4730987544062515	0.5136643675262959
-0.4730377192500015	0.5206860243555763
-0.4729766840937515	0.5276571567287411
-0.4729156489375015	0.5345040493723243
-0.4728546137812515	0.5410339617955845
-0.4727935786250015	0.5471836944340944
-0.4727325434687515	0.553096524225093
-0.4726715083125015	0.5589294952190333
-0.4726104731562515	0.5646453615776846
-0.4725494380000015	0.5700605665403751
-0.4724884028437515	0.5750833248553013
-0.4724273676875015	0.5798286921598486
-0.4723663325312515	0.5844624668576156
-0.4723052973750015	0.5889816837734101
-0.4722442622187515	0.5932188179635434
-0.4721832270625015	0.5970603683628298
-0.4721221919062515	0.6005912577431959
-0.4720611567500015	0.6039783086306132
-0.4720001215937515	0.6072493676633632
-0.4719390864375015	0.610257790097795
-0.4718780512812515	0.6128751051579373
-0.4718170161250015	0.6151563756622744
-0.4717559809687515	0.6172631802935219
-0.4716949458125015	0.619249326741117
-0.4716339106562515	0.6209914950999436
-0.4715728755000015	0.6223526163982996
-0.4715118403437515	0.6233602074538711
-0.4714508051875015	0.6241663266911232
-0.4713897700312515	0.624845668480721
-0.4713287348750015	0.6252989136233824
-0.4712676997187515	0.6253856523549345
-0.4712066645625015	0.6251085101816994
-0.4711456294062515	0.6246066502333482
-0.4710845942500015	0.6239710029614243
-0.4710235590937515	0.6231265035831043
-0.4709625239375015	0.6219339784304682
-0.4709014887812515	0.6203739589439687
-0.4708404536250015	0.6185702933617647
-0.4707794184687515	0.6166258922596648
-0.4707183833125015	0.6144893339520159
-0.4706573481562515	0.6120262314633431
-0.4705963130000015	0.6091980018954998
-0.4705352778437515	0.6061120289413678
-0.4704742426875015	0.6028796993198807
-0.4704132075312515	0.5994716473428418
-0.4703521723750015	0.595760275430341
-0.4702911372187515	0.5916908261481262
-0.4702301020625015	0.5873543426876202
-0.4701690669062515	0.5828680660801808
-0.4701080317500015	0.5782231124146531
-0.4700469965937515	0.573300219823767
-0.4699859614375015	0.5680307576747371
-0.4699249262812515	0.5624891041524079
-0.4698638911250015	0.5567956044388149
-0.4698028559687515	0.5509605922018592
-0.4697418208125015	0.5448755151561392
-0.4696807856562515	0.5384604614957491
-0.4696197505000015	0.531772072705436
-0.4695587153437515	0.5249308384421842
-0.4694976801875015	0.5179655414825339
-0.4694366450312515	0.5107801959260048
