Time	Frequency
-0.5000214768437488	-0.4287634552325439
-0.49996044168749876	-0.42371355988289106
-0.49989940653124876	-0.4185360079104604
-0.49983837137499876	-0.41327669481518914
-0.49977733621874876	-0.4079046813904349
-0.49971630106249876	-0.40236951677115423
-0.49965526590624876	-0.39669819332419376
-0.49959423074999876	-0.3909509456633765
-0.49953319559374876	-0.3851123884665059
-0.49947216043749876	-0.37912009257238805
-0.49941112528124876	-0.3729830094924028
-0.49935009012499876	-0.3667709337923061
-0.49928905496874876	-0.3604891885264878
-0.49922801981249876	-0.35406915415809054
-0.49916698465624876	-0.3474975502823703
-0.49910594949999876	-0.3408473840502673
-0.49904491434374876	-0.3341480538137007
-0.49898387918749876	-0.32733166408732467
-0.49892284403124876	-0.3203597128670121
-0.49886180887499876	-0.31330023044043276
-0.49880077371874876	-0.30620844970624467
-0.49873973856249876	-0.2990265584284886
-0.49867870340624876	-0.2916913357213076
-0.49861766824999876	-0.28425630511038497
-0.49855663309374876	-0.27680015789628426
-0.49849559793749876	-0.26928436030317704
-0.49843456278124876	-0.2616244432416005
-0.49837352762499876	-0.25385029402872183
-0.49831249246874876	-0.2460590063653105
-0.49825145731249876	-0.2382400073387942
-0.49819042215624876	-0.23029473310319462
-0.49812938699999876	-0.22222191815319417
-0.49806835184374876	-0.21412826342431343
-0.49800731668749876	-0.20603743582010528
-0.49794628153124876	-0.19784667805643796
-0.49788524637499876	-0.18951823120140213
-0.49782421121874876	-0.18115686972172695
-0.49776317606249876	-0.17282414013735176
-0.49770214090624876	-0.1644264868497949
-0.49764110574999876	-0.15588867729170786
-0.49758007059374876	-0.14729923171299747
-0.49751903543749876	-0.13875598383993631
-0.49745800028124876	-0.13018879378537837
-0.49739696512499876	-0.12148871579362461
-0.49733592996874876	-0.11271412420404196
-0.49727489481249876	-0.1039926472185238
-0.49721385965624876	-0.09529063146329377
-0.49715282449999876	-0.08647479780336025
-0.49709178934374876	-0.07756166648989737
-0.49703075418749876	-0.06869700586744269
-0.49696971903124876	-0.05989397412021672
-0.49690868387499876	-0.051008720871928155
-0.49684764871874876	-0.042007035912349645
-0.49678661356249876	-0.03303631657873549
-0.49672557840624876	-0.024162885821371927
-0.49666454324999876	-0.015251376192291045
-0.49660350809374876	-0.006214174807165613
-0.49654247293749876	0.0028199183319329887
-0.49648143778124876	0.01173268656448781
-0.49642040262499876	0.02063100062985506
-0.49635936746874876	0.029651334184061507
-0.49629833231249876	0.038703448570200354
-0.49623729715624876	0.047625432939139914
-0.49617626199999876	0.056475530215902674
-0.49611522684374876	0.06542582951787512
-0.49605419168749876	0.07444333832070214
-0.49599315653124876	0.08334077607083284
-0.49593212137499876	0.0921126644014423
-0.49587108621874876	0.10094497460744528
-0.49581005106249876	0.1098730165011451
-0.49574901590624876	0.11870851219885195
-0.49568798074999876	0.1273756454053931
-0.49562694559374876	0.13604759064062105
-0.49556591043749876	0.14482920430300394
-0.49550487528124876	0.15355918788333622
-0.49544384012499876	0.16209597962585182
-0.49538280496874876	0.17057202639163116
-0.49532176981249876	0.17915113209070577
-0.49526073465624876	0.18772530543388094
-0.49519969949999876	0.19610384434318662
-0.49513866434374876	0.20435549589068863
-0.49507762918749876	0.21268163779670832
-0.49501659403124876	0.2210468791254768
-0.49495555887499876	0.2292369897933016
-0.49489452371874876	0.23724197693291973
-0.49483348856249876	0.24527057911820388
-0.49477245340624876	0.25336829692034263
-0.49471141824999876	0.26133047291041495
-0.49465038309374876	0.2690683009788165
-0.49458934793749876	0.2767652618505617
-0.49452831278124876	0.2845412632877055
-0.49446727762499876	0.2922322849918225
-0.49440624246874876	0.2996829882760743
-0.49434520731249876	0.3070222736597034
-0.49428417215624876	0.3144251908476953
-0.49422313699999876	0.32179377776099694
-0.49416210184374876	0.32893198254741773
-0.49410106668749876	0.3358949584940533
-0.49404003153124876	0.34288311467962596
-0.49397899637499876	0.3498772026747882
-0.49391796121874876	0.3566725412034207
-0.49385692606249876	0.36324463683787034
-0.49379589090624876	0.36978602387101145
-0.49373485574999876	0.3763545280497054
-0.49367382059374876	0.3827692934126222
-0.49361278543749876	0.3889351061943525
-0.49355175028124876	0.3950068253327573
-0.49349071512499876	0.40110436703297064
-0.49342967996874876	0.40709695097643267
-0.49336864481249876	0.4128390094414826
-0.49330760965624876	0.41842598263650216
-0.49324657449999876	0.42401478091123995
-0.49318553934374876	0.4295406388238063
-0.49312450418749876	0.4348360074301469
-0.49306346903124876	0.43992789322170095
-0.49300243387499876	0.4449807527862452
-0.49294139871874876	0.44999800707607307
-0.49288036356249876	0.45481897368188356
-0.49281932840624876	0.459405966355772
-0.49275829324999876	0.4639035031429701
-0.49269725809374876	0.46837401593393824
-0.49263622293749876	0.47268898648779806
-0.49257518778124876	0.4767608367542403
-0.49251415262499876	0.4806928271581419
-0.49245311746874876	0.48458684805574836
-0.49239208231249876	0.48836244041999455
-0.49233104715624876	0.49190447737825305
-0.49227001199999876	0.49526465354978033
-0.49220897684374876	0.4985608075378689
-0.49214794168749876	0.5017656650252857
-0.49208690653124876	0.5047604080263496
-0.49202587137499876	0.5075453166224453
-0.49196483621874876	0.5102310609298726
-0.49190380106249876	0.5128380763207401
-0.49184276590624876	0.5152647149898729
-0.49178173074999876	0.517469894984519
-0.49172069559374876	0.51953965495775
-0.49165966043749876	0.5215287867334856
-0.49159862528124876	0.5233665529696022
-0.49153759012499876	0.5249862568039831
-0.49147655496874876	0.5264395551323952
-0.49141551981249876	0.5277982986108158
-0.49135448465624876	0.5290280705850078
-0.49129344949999876	0.5300542183208575
-0.49123241434374876	0.5308928785282397
-0.49117137918749876	0.5316160954625052
-0.49111034403124876	0.532223145946568
-0.49104930887499876	0.5326467194575067
-0.49098827371874876	0.5328733222387145
-0.49092723856249876	0.5329621430687788
-0.49086620340624876	0.5329376479770498
-0.49080516824999876	0.5327501630279347
-0.49074413309374876	0.532366814126009
-0.49068309793749876	0.5318265824426271
-0.49062206278124876	0.5311680146673078
-0.49056102762499876	0.5303635248657389
-0.49049999246874876	0.5293720971657722
-0.49043895731249876	0.5282107944284157
-0.49037792215624876	0.5269214402813681
-0.49031688699999876	0.5254977523013036
-0.49025585184374876	0.5239004678380496
-0.49019481668749876	0.5221276742120422
-0.49013378153124876	0.5202159102383292
-0.49007274637499876	0.5181755872199233
-0.49001171121874876	0.5159761423502878
-0.48995067606249876	0.5136024333002326
-0.48988964090624876	0.5110805344211128
-0.48982860574999876	0.5084311221693361
-0.48976757059374876	0.505635614179566
-0.48970653543749876	0.5026721660546385
-0.48964550028124876	0.49955485300049524
-0.48958446512499876	0.49630853799022184
-0.48952342996874876	0.4929268401230642
-0.48946239481249876	0.48938664876617743
-0.48940135965624876	0.48569082966388316
-0.48934032449999876	0.48186362065439986
-0.48927928934374876	0.4779091123955471
-0.48921825418749876	0.4738069541568652
-0.48915721903124876	0.4695511737537443
-0.48909618387499876	0.46516225219145696
-0.48903514871874876	0.4606521554903667
-0.48897411356249876	0.45600559288920195
-0.48891307840624876	0.45121029839171006
-0.48885204324999876	0.4462813191993861
-0.48879100809374876	0.4412360093452824
-0.48872997293749876	0.43606533215351884
-0.48866893778124876	0.43075320936765465
-0.48860790262499876	0.4253085502578994
-0.48854686746874876	0.4197516788036813
-0.48848583231249876	0.41407987711893146
-0.48842479715624876	0.4082752289081908
-0.48836376199999876	0.40234078186355426
-0.48830272684374876	0.3962984052337268
-0.48824169168749876	0.39015158058890553
-0.48818065653124876	0.3838817878724017
-0.48811962137499876	0.37748611698951173
-0.48805858621874876	0.3709867271909396
-0.48799755106249876	0.36439334297575304
-0.48793651590624876	0.35768780021994784
-0.48787548074999876	0.35086089595168607
-0.48781444559374876	0.3439341493564247
-0.48775341043749876	0.3369244109171568
-0.48769237528124876	0.3298154900938394
-0.48763134012499876	0.32259111310176236
-0.48757030496874876	0.3152697716926488
-0.48750926981249876	0.3078752408325902
-0.48744823465624876	0.30039574394913615
-0.48738719949999876	0.2928088787406308
-0.48732616434374876	0.2851279995177324
-0.48726512918749876	0.2773828696444043
-0.48720409403124876	0.26956807184033016
-0.48714305887499876	0.2616556766173611
-0.48708202371874876	0.25365149980588153
-0.48702098856249876	0.24559044941032826
-0.48695995340624876	0.23747645412670415
-0.48689891824999876	0.22927767623115247
-0.48683788309374876	0.2209893842835793
-0.48677684793749876	0.2126493646321001
-0.48671581278124876	0.20427347110444888
-0.48665477762499876	0.1958287832328789
-0.48659374246874876	0.18729781022858866
-0.48653270731249876	0.17871718265348177
-0.48647167215624876	0.1701159941626119
-0.48641063699999876	0.1614652196146162
-0.48634960184374876	0.15273444236825146
-0.48628856668749876	0.14395417790368184
-0.48622753153124876	0.13516641257431333
-0.48616649637499876	0.12635075387564487
-0.48610546121874876	0.11746450602904358
-0.48604442606249876	0.10852728517695538
-0.48598339090624876	0.09959222087422523
-0.48592235574999876	0.09065209322380113
-0.48586132059374876	0.08165481668275747
-0.48580028543749876	0.07260464805392619
-0.48573925028124876	0.06356218859667119
-0.48567821512499876	0.05453803109694779
-0.48561717996874876	0.04547539181031102
-0.48555614481249876	0.03635878573651907
-0.48549510965624876	0.027250065860667874
-0.48543407449999876	0.018180753286664113
-0.48537303934374876	0.009096638483363737
-0.48531200418749876	-3.888112234345152e-05
-0.48525096903124876	-0.009169981449929936
-0.48518993387499876	-0.01824422622759559
-0.48512889871874876	-0.027306419569330994
-0.48506786356249876	-0.036413759811288735
-0.48500682840624876	-0.04552373852496057
-0.48494579324999876	-0.054564255542188946
-0.48488475809374876	-0.06356249263065296
-0.48482372293749876	-0.0725931793251746
-0.48476268778124876	-0.08163538061239443
-0.48470165262499876	-0.09060271371856783
-0.48464061746874876	-0.09949762446415883
-0.48457958231249876	-0.10840534250326055
-0.48451854715624876	-0.11733235390505066
-0.48445751199999876	-0.12618596780734131
-0.48439647684374876	-0.13493901178150103
-0.48433544168749876	-0.14367863721582932
-0.48427440653124876	-0.15244291268577184
-0.48421337137499876	-0.16114243503848324
-0.48415233621874876	-0.1697174557450149
-0.48409130106249876	-0.1782461357457428
-0.48403026590624876	-0.18679910438659758
-0.48396923074999876	-0.19530205141364926
-0.48390819559374876	-0.2036640100604261
-0.48384716043749876	-0.21194218374862295
-0.48378612528124876	-0.22023614182649653
-0.48372509012499876	-0.22849860804758163
-0.48366405496874876	-0.23661362385417628
-0.48360301981249876	-0.2446059337176339
-0.48354198465624876	-0.252595412108688
-0.48348094949999876	-0.2605723757276219
-0.48341991434374876	-0.26840622512986356
-0.48335887918749876	-0.2760799756658185
-0.48329784403124876	-0.2837218908758274
-0.48323680887499876	-0.29136744606484144
-0.48317577371874876	-0.298885284268695
-0.48311473856249876	-0.3062115758550366
-0.48305370340624876	-0.3134673625872911
-0.48299266824999876	-0.32073576758271577
-0.48293163309374876	-0.3279017209272048
-0.48287059793749876	-0.33485481467549183
-0.48280956278124876	-0.34169071800159184
-0.48274852762499876	-0.34853663696123294
-0.48268749246874876	-0.35531218722962515
-0.48262645731249876	-0.3618676280080914
-0.48256542215624876	-0.3682556477475486
-0.48250438699999876	-0.37463684066057845
-0.48244335184374876	-0.38098198666328437
-0.48238231668749876	-0.3871164010980816
-0.48232128153124876	-0.39303519065187426
-0.48226024637499876	-0.39891416117511597
-0.48219921121874876	-0.4047867862884175
-0.48213817606249876	-0.4104745974975965
-0.48207714090624876	-0.415907196155224
-0.48201610574999876	-0.42125216362782025
-0.48195507059374876	-0.4266097425698832
-0.48189403543749876	-0.4318233600618994
-0.48183300028124876	-0.4367582424746699
-0.48177196512499876	-0.4415470280499115
-0.48171092996874876	-0.44634946658272107
-0.48164989481249876	-0.4510566575472394
-0.48158885965624876	-0.455482222126483
-0.48152782449999876	-0.459699953403655
-0.48146678934374876	-0.46391143911187327
-0.48140575418749876	-0.4680770368133741
-0.48134471903124876	-0.4719816914227023
-0.48128368387499876	-0.47562278514818884
-0.48122264871874876	-0.4792160165563228
-0.48116161356249876	-0.4828027288272549
-0.48110057840624876	-0.4861701178468179
-0.48103954324999876	-0.4892339279328155
-0.48097850809374876	-0.49219137938534285
-0.48091747293749876	-0.4951634301403007
-0.48085643778124876	-0.49797265230251775
-0.48079540262499876	-0.5004615763697788
-0.48073436746874876	-0.5027768182413183
-0.48067333231249876	-0.5051032163333831
-0.48061229715624876	-0.5073279271873711
-0.48055126199999876	-0.5092427983565117
-0.48049022684374876	-0.5109193376251923
-0.48042919168749876	-0.5125781685007673
-0.48036815653124876	-0.5141895945750319
-0.48030712137499876	-0.5155271270708162
-0.48024608621874876	-0.516575526772554
-0.48018505106249876	-0.5175559962148412
-0.48012401590624876	-0.5185258622309223
-0.48006298074999876	-0.519276591810465
-0.48000194559374876	-0.5197104732792647
-0.47994091043749876	-0.5200139846362115
-0.47987987528124876	-0.5203194075252283
-0.47981884012499876	-0.5204686265125535
-0.47975780496874876	-0.5203005646681735
-0.47969676981249876	-0.5199389600478822
-0.47963573465624876	-0.5195659133341063
-0.47957469949999876	-0.5190958724969292
-0.47951366434374876	-0.5183341350564319
-0.47945262918749876	-0.5173264396416706
-0.47939159403124876	-0.5162720937641007
-0.47933055887499876	-0.5151660610766267
-0.47926952371874876	-0.5138138590027607
-0.47920848856249876	-0.5121826874826211
-0.47914745340624876	-0.5104555385516167
-0.47908641824999876	-0.5087010157253152
-0.47902538309374876	-0.5067563028248578
-0.47896434793749876	-0.5045239326699263
-0.47890331278124876	-0.5021430121009518
-0.47884227762499876	-0.49973605987627623
-0.47878124246874876	-0.4971943098198236
-0.47872020731249876	-0.4943796069545583
-0.47865917215624876	-0.49137054177651157
-0.47859813699999876	-0.48831678400007816
-0.47853710184374876	-0.4851742164087233
-0.47847606668749876	-0.4817923001588152
-0.47841503153124876	-0.4781848637781003
-0.47835399637499876	-0.47450015245529964
-0.47829296121874876	-0.47075638096773437
-0.47823192606249876	-0.46681789612171787
-0.47817089090624876	-0.4626422517469805
-0.47810985574999876	-0.45835185690239105
-0.47804882059374876	-0.45401359627102034
-0.47798778543749876	-0.44952719733656293
-0.47792675028124876	-0.44481156126454496
-0.47786571512499876	-0.43994730679226157
-0.47780467996874876	-0.43502950958545217
-0.47774364481249876	-0.4300039267008531
-0.47768260965624876	-0.4247727440539881
-0.47762157449999876	-0.41936983316703125
-0.47756053934374876	-0.4138965746903634
-0.47749950418749876	-0.40834450688267626
-0.47743846903124876	-0.402619831568122
-0.47737743387499876	-0.3967142574736547
-0.47731639871874876	-0.3907165625210149
-0.47725536356249876	-0.3846556176620341
-0.47719432840624876	-0.37845785634116796
-0.47713329324999876	-0.37208459463046345
-0.47707225809374876	-0.365599383899365
-0.47701122293749876	-0.3590543441710038
-0.47695018778124876	-0.35240457440208645
-0.47688915262499876	-0.3455960057296257
-0.47682811746874876	-0.33866251682477844
-0.47676708231249876	-0.3316644818923069
-0.47670604715624876	-0.3245867193142152
-0.47664501199999876	-0.3173741903350664
-0.47658397684374876	-0.31003304925498415
-0.47652294168749876	-0.30261885698491947
-0.47646190653124876	-0.2951413929683025
-0.47640087137499876	-0.28755546029887996
-0.47633983621874876	-0.2798462959109757
-0.47627880106249876	-0.2720561237462554
-0.47621776590624876	-0.26421148953924234
-0.47615673074999876	-0.25628332412496824
-0.47609569559374876	-0.24824515599119
-0.47603466043749876	-0.24012223357019857
-0.47597362528124876	-0.2319484048104427
-0.47591259012499876	-0.22371181845143034
-0.47585155496874876	-0.21538292465217238
-0.47579051981249876	-0.2069704823306866
-0.47572948465624876	-0.19850786445081678
-0.47566844949999876	-0.18999841316783567
-0.47560741434374876	-0.18141652340770026
-0.47554637918749876	-0.1727582992976244
-0.47548534403124876	-0.1640512386049177
-0.47542430887499876	-0.1553092336139842
-0.47536327371874876	-0.1465138199012335
-0.47530223856249876	-0.1376525682625474
-0.47524120340624876	-0.1287449574169073
-0.47518016824999876	-0.1198114722571333
-0.47511913309374876	-0.11084262436306334
-0.47505809793749876	-0.10182176405306913
-0.47499706278124876	-0.09275950716919837
-0.47493602762499876	-0.08367888893634222
-0.47487499246874876	-0.0745788750119014
-0.47481395731249876	-0.06544168577457014
-0.47475292215624876	-0.056269942520011634
-0.47469188699999876	-0.047086486369364716
-0.47463085184374876	-0.037897925575084465
-0.47456981668749876	-0.02868813556440765
-0.47450878153124876	-0.01945299666081677
-0.47444774637499876	-0.01021292765398022
-0.47438671121874876	-0.000980446464872109
-0.47432567606249876	0.008257778459293855
-0.47426464090624876	0.017511171020301527
-0.47420360574999876	0.02676237715037208
-0.47414257059374876	0.0359939998646147
-0.47408153543749876	0.04521603934753256
-0.47402050028124876	0.054442478378067774
-0.47395946512499876	0.06365944886000538
-0.47389842996874876	0.07284494269209252
-0.47383739481249876	0.0820050041317686
-0.47377635965624876	0.09115839168870082
-0.47371532449999876	0.10029620762816303
-0.47365428934374876	0.10939199262949659
-0.47359325418749876	0.11844575711816413
-0.47353221903124876	0.12747995532715517
-0.47347118387499876	0.1364926076343643
-0.47341014871874876	0.145454660033497
-0.47334911356249876	0.1543587530204162
-0.47328807840624876	0.16322907444592324
-0.47322704324999876	0.17207164080366127
-0.47316600809374876	0.18085650759188202
-0.47310497293749876	0.18956755189315494
-0.47304393778124876	0.19822896173574958
-0.47298290262499876	0.2068565504747548
-0.47292186746874876	0.21542208136632005
-0.47286083231249876	0.22389914445401068
-0.47279979715624876	0.23230830718593665
-0.47273876199999876	0.2406760091163563
-0.47267772684374876	0.24897990728641106
-0.47261669168749876	0.25718344781968194
-0.47255565653124876	0.2652994725575847
-0.47249462137499876	0.2733638755329727
-0.47243358621874876	0.2813640748994557
-0.47237255106249876	0.28925535352372017
-0.47231151590624876	0.29703905284232257
-0.47225048074999876	0.30475792497296855
-0.47218944559374876	0.31241288760198915
-0.47212841043749876	0.3199545140625026
-0.47206737528124876	0.3273694045172298
-0.47200634012499876	0.3347031226991653
-0.47194530496874876	0.3419727595743434
-0.47188426981249876	0.3491285955716034
-0.47182323465624876	0.356140261755253
-0.47176219949999876	0.3630510812562559
-0.47170116434374876	0.3698960127919949
-0.47164012918749876	0.376631038992219
-0.47157909403124876	0.3832079656535915
-0.47151805887499876	0.3896610475536035
-0.47145702371874876	0.39604269848556334
-0.47139598856249876	0.4023219619125937
-0.47133495340624876	0.40843517328353335
-0.47127391824999876	0.4144005928046333
-0.47121288309374876	0.42028416581491934
-0.47115184793749876	0.42607395295039796
-0.47109081278124876	0.4316954667541335
-0.47102977762499876	0.4371455663674235
-0.47096874246874876	0.44249825058069325
-0.47090770731249876	0.4477657175486467
-0.47084667215624876	0.4528695425847737
-0.47078563699999876	0.45778089183892073
-0.47072460184374876	0.4625738117228446
-0.47066356668749876	0.46728776813566686
-0.47060253153124876	0.47184916478666145
-0.47054149637499876	0.4762017778516394
-0.47048046121874876	0.4804103152887441
-0.47041942606249876	0.48454154830253815
-0.47035839090624876	0.4885365538269328
