Time	Frequency
-0.5000381464062471	-0.4740647555899265
-0.4999771112499971	-0.4791656032198717
-0.4999160760937471	-0.4840847836804642
-0.4998550409374971	-0.4888362797703288
-0.4997940057812471	-0.49345110516453006
-0.4997329706249971	-0.4979010805925503
-0.4996719354687471	-0.502162595497544
-0.4996109003124971	-0.5062676168547438
-0.4995498651562471	-0.5102241868129447
-0.4994888299999971	-0.5139952744219382
-0.4994277948437471	-0.5175830131413439
-0.4993667596874971	-0.5210193505969709
-0.4993057245312471	-0.5242880288641691
-0.4992446893749971	-0.5273612492348859
-0.4991836542187471	-0.5302619558453044
-0.4991226190624971	-0.5330062517407929
-0.4990615839062471	-0.535563798581863
-0.4990005487499971	-0.5379276528512508
-0.4989395135937471	-0.540127504451867
-0.4988784784374971	-0.5421574042875995
-0.4988174432812471	-0.5439890248909166
-0.4987564081249971	-0.5456367093883258
-0.4986953729687471	-0.5471210718995718
-0.4986343378124971	-0.5484193533960801
-0.4985733026562471	-0.5495186446681161
-0.4985122674999971	-0.5504444365763514
-0.4984512323437471	-0.5511988206687091
-0.4983901971874971	-0.5517556239179372
-0.4983291620312471	-0.5521218578286339
-0.4982681268749971	-0.5523196470257102
-0.4982070917187471	-0.5523335205254337
-0.4981460565624971	-0.5521475609489661
-0.4980850214062471	-0.5517826129922656
-0.4980239862499971	-0.5512463339275624
-0.4979629510937471	-0.5505157654441366
-0.4979019159374971	-0.5495923818273921
-0.4978408807812471	-0.5484984058103757
-0.4977798456249971	-0.5472246640163787
-0.4977188104687471	-0.545753741663132
-0.4976577753124971	-0.5441020311889202
-0.4975967401562471	-0.5422813419138264
-0.4975357049999971	-0.5402724130677083
-0.4974746698437471	-0.5380723650814395
-0.4974136346874971	-0.535702528858835
-0.4973525995312471	-0.5331591689185344
-0.4972915643749971	-0.5304246745050176
-0.4972305292187471	-0.5275114066600559
-0.4971694940624971	-0.5244338487537324
-0.4971084589062471	-0.5211764558189436
-0.4970474237499971	-0.5177334402966742
-0.4969863885937471	-0.514124880748504
-0.4969253534374971	-0.510351338948225
-0.4968643182812471	-0.5063955052283913
-0.4968032831249971	-0.5022663491144186
-0.4967422479687471	-0.4979806066736693
-0.4966812128124971	-0.493526124799334
-0.4966201776562471	-0.4888942389442692
-0.4965591424999971	-0.4841038371298948
-0.4964981073437471	-0.4791599903583718
-0.4964370721874971	-0.4740457648201617
-0.4963760370312471	-0.4687663049984186
-0.4963150018749971	-0.46334033665237606
-0.4962539667187471	-0.45775984443950674
-0.4961929315624971	-0.4520136352715688
-0.4961318964062471	-0.44611833185364763
-0.4960708612499971	-0.44008323649140224
-0.4960098260937471	-0.43389277991546277
-0.4959487909374971	-0.4275482336496261
-0.4958877557812471	-0.4210695348807886
-0.4958267206249971	-0.4144528899638285
-0.4957656854687471	-0.4076848683056138
-0.4957046503124971	-0.400779584849173
-0.4956436151562471	-0.3937505980732925
-0.4955825799999971	-0.38658410878184546
-0.4955215448437471	-0.3792771939442155
-0.4954605096874971	-0.37185051029585237
-0.4953994745312471	-0.3643051508999663
-0.4953384393749971	-0.3566256917301403
-0.4952774042187471	-0.34882254910554694
-0.4952163690624971	-0.34091355673636853
-0.4951553339062471	-0.3328878856582904
-0.4950942987499971	-0.32473769534312835
-0.4950332635937471	-0.31648322565669657
-0.4949722284374971	-0.30813166298262157
-0.4949111932812471	-0.2996664019503941
-0.4948501581249971	-0.2910926947835551
-0.4947891229687471	-0.28243228317716823
-0.4947280878124971	-0.27367880864281896
-0.4946670526562471	-0.2648192186943201
-0.4946060174999971	-0.25587166733802424
-0.4945449823437471	-0.24685005197065535
-0.4944839471874971	-0.23773777262801396
-0.4944229120312471	-0.22853366985744972
-0.4943618768749971	-0.21926291731634354
-0.4943008417187471	-0.20992532909406356
-0.4942398065624971	-0.2005020875847803
-0.4941787714062471	-0.19100742473831506
-0.4941177362499971	-0.18146345444904316
-0.4940567010937471	-0.17185508841885058
-0.4939956659374971	-0.1621723857756383
-0.4939346307812471	-0.15244244253933892
-0.4938735956249971	-0.14267362915381362
-0.4938125604687471	-0.1328423735918768
-0.4937515253124971	-0.1229564817354547
-0.4936904901562471	-0.113046154992661
-0.4936294549999971	-0.10310042468261685
-0.4935684198437471	-0.0930994302745448
-0.4935073846874971	-0.08306976058491412
-0.4934463495312471	-0.07303047948253832
-0.4933853143749971	-0.0629547213440073
-0.4933242792187471	-0.05284072578580702
-0.4932632440624971	-0.04272608473640021
-0.4932022089062471	-0.03260724056308006
-0.4931411737499971	-0.022453799637377012
-0.4930801385937471	-0.012288769284880931
-0.4930191034374971	-0.0021443264067693407
-0.4929580682812471	0.008007309786946115
-0.4928970331249971	0.01818177719460484
-0.4928359979687471	0.02833552706240956
-0.4927749628124971	0.038459649416377924
-0.4927139276562471	0.048595309783451675
-0.4926528924999971	0.058728387958985225
-0.4925918573437471	0.06881197018783712
-0.4925308221874971	0.07887006627268121
-0.4924697870312471	0.08893539296733699
-0.4924087518749971	0.09896205505495195
-0.4923477167187471	0.10892382726157297
-0.4922866815624971	0.11887062165676279
-0.4922256464062471	0.12880370711998426
-0.4921646112499971	0.1386619044940565
-0.4921035760937471	0.14845825048162525
-0.4920425409374971	0.15824423674226307
-0.4919815057812471	0.16797903596091648
-0.4919204706249971	0.1776153812891346
-0.4918594354687471	0.1872055491237946
-0.4917984003124971	0.19677199741574325
-0.4917373651562471	0.2062437691995519
-0.4916763299999971	0.2156155394416882
-0.4916152948437471	0.22495576845377696
-0.4915542596874971	0.23423731709733947
-0.4914932245312471	0.24339079071029426
-0.4914321893749971	0.25246207638557977
-0.4913711542187471	0.2614994565610666
-0.4913101190624971	0.2704302393822404
-0.4912490839062471	0.27922292342973454
-0.4911880487499971	0.2879569302788239
-0.4911270135937471	0.29662927815720214
-0.4910659784374971	0.30515188835910445
-0.4910049432812471	0.3135523087589497
-0.4909439081249971	0.32190446767616926
-0.4908828729687471	0.3301465323851191
-0.4908218378124971	0.3382174997257693
-0.4907608026562471	0.34619591394646976
-0.4906997674999971	0.3541100330621421
-0.4906387323437471	0.36186305179945316
-0.4905776971874971	0.3694538932505188
-0.4905166620312471	0.3769752908366753
-0.4904556268749971	0.3843894676655495
-0.4903945917187471	0.39160926822279835
-0.4903335565624971	0.39869733208242353
-0.4902725214062471	0.4057140326700258
-0.4902114862499971	0.41256947706451486
-0.4901504510937471	0.4192286428259456
-0.4900894159374971	0.4257886057517314
-0.4900283807812471	0.4322452858052856
-0.4899673456249971	0.438497310353604
-0.4899063104687471	0.4445785300356967
-0.4898452753124971	0.4505733775423439
-0.4897842401562471	0.4564141158486074
-0.4897232049999971	0.46203551998500714
-0.4896621698437471	0.46752277192738134
-0.4896011346874971	0.47290634371544027
-0.4895400995312471	0.47808661495507554
-0.4894790643749971	0.4830635006076823
-0.4894180292187471	0.48793134831062845
-0.4893569940624971	0.492653747797656
-0.4892959589062471	0.49714655952351267
-0.4892349237499971	0.5014707432768215
-0.4891738885937471	0.505683938564703
-0.4891128534374971	0.509702878332562
-0.4890518182812471	0.5134966257871111
-0.4889907831249971	0.5171540974819117
-0.4889297479687471	0.5206715619108638
-0.4888687128124971	0.5239604884501289
-0.4888076776562471	0.5270524144398249
-0.4887466424999971	0.5300200268783617
-0.4886856073437471	0.5328047356596392
-0.4886245721874971	0.535353657999892
-0.4885635370312471	0.5377399103961142
-0.4885025018749971	0.5399873443159359
-0.4884414667187471	0.5420146274502519
-0.4883804315624971	0.5438251173191823
-0.4883193964062471	0.545494881107411
-0.4882583612499971	0.546992467114408
-0.4881973260937471	0.5482536090846165
-0.4881362909374971	0.5493300770594942
-0.4880752557812471	0.5502650147170585
-0.4880142206249971	0.5509921029085095
-0.4879531854687471	0.5514918618996416
-0.4878921503124971	0.5518347848230652
-0.4878311151562471	0.5520146112183134
-0.4877700799999971	0.5519647988855501
-0.4877090448437471	0.5517144132510922
-0.4876480096874971	0.5513176947312288
-0.4875869745312471	0.5507276421413299
-0.4875259393749971	0.5499083715832198
-0.4874649042187471	0.5489182430546344
-0.4874038690624971	0.5477720981905805
-0.4873428339062471	0.5464089912137798
-0.4872817987499971	0.5448367108820193
-0.4872207635937471	0.543112457222563
-0.4871597284374971	0.5412098542162757
-0.4870986932812471	0.5390840848759624
-0.4870376581249971	0.5367777051296658
-0.4869766229687471	0.5343207425503579
-0.4869155878124971	0.5316632439682546
-0.4868545526562471	0.528795448389187
-0.4867935174999971	0.52577112417614
-0.4867324823437471	0.522583110480904
-0.4866714471874971	0.519184160254919
-0.4866104120312471	0.5156001482757773
-0.4865493768749971	0.5118703407808529
-0.4864883417187471	0.507958703566523
-0.4864273065624971	0.5038427438139936
-0.4863662714062471	0.4995682224544076
-0.4863052362499971	0.49514405103999687
-0.4862442010937471	0.49052614603890826
-0.4861831659374971	0.48572467587426943
-0.4861221307812471	0.4807822164725289
-0.4860610956249971	0.47567779848669695
-0.4860000604687471	0.47038149904649346
-0.4859390253124971	0.46492795424270383
-0.4858779901562471	0.459337964610415
-0.4858169549999971	0.4535751276340366
-0.4857559198437471	0.44763662277297145
-0.4856948846874971	0.44156301205745313
-0.4856338495312471	0.4353473253112615
-0.4855728143749971	0.4289576467801341
-0.4855117792187471	0.42241675316841104
-0.4854507440624971	0.4157522838150859
-0.4853897089062471	0.40893759447003086
-0.4853286737499971	0.40196074836659745
-0.4852676385937471	0.3948570878140243
-0.4852066034374971	0.3876310965315154
-0.4851455682812471	0.3802527275414223
-0.4850845331249971	0.37273401497820574
-0.4850234979687471	0.36510530259195134
-0.4849624628124971	0.3573499385127733
-0.4849014276562471	0.3494506936643055
-0.4848403924999971	0.34143611056681034
-0.4847793573437471	0.3333188343138373
-0.4847183221874971	0.32507302538826666
-0.4846572870312471	0.3167021723296696
-0.4845962518749971	0.3082363394057087
-0.4845352167187471	0.29966780829819545
-0.4844741815624971	0.2909773096437578
-0.4844131464062471	0.28218628102215537
-0.4843521112499971	0.2733121440938494
-0.4842910760937471	0.26433463602524426
-0.4842300409374971	0.255251700810174
-0.4841690057812471	0.24609106081084048
-0.4841079706249971	0.2368515938711188
-0.4840469354687471	0.22751402317655295
-0.4839859003124971	0.21809394340781482
-0.4839248651562471	0.20861167135740558
-0.4838638299999971	0.19905194630939735
-0.4838027948437471	0.18940834275213667
-0.4837417596874971	0.17970589442806695
-0.4836807245312471	0.1699493462091424
-0.4836196893749971	0.16012049375150816
-0.4835586542187471	0.150229498392489
-0.4834976190624971	0.14029801670403286
-0.4834365839062471	0.1303157343070334
-0.4833755487499971	0.12027346949651664
-0.4833145135937471	0.11019280459156086
-0.4832534784374971	0.10008244746919809
-0.4831924432812471	0.08992624064454198
-0.4831314081249971	0.07973039592958606
-0.4830703729687471	0.06951673925329786
-0.4830093378124971	0.05927891365199605
-0.4829483026562471	0.04900611529766405
-0.4828872674999971	0.03871714002357822
-0.4828262323437471	0.028423739702447062
-0.4827651971874971	0.018111058262447327
-0.4827041620312471	0.007781540039992477
-0.4826431268749971	-0.0025425409259617797
-0.4825820917187471	-0.01286358801366672
-0.4825210565624971	-0.02319409422380444
-0.4824600214062471	-0.033518296271828577
-0.4823989862499971	-0.043821411503490296
-0.4823379510937471	-0.054116441199719985
-0.4822769159374971	-0.064404897244887
-0.4822158807812471	-0.07466492573784281
-0.4821548456249971	-0.08489483667426029
-0.4820938104687471	-0.0951085594387867
-0.4820327753124971	-0.10529396832059312
-0.4819717401562471	-0.11543321480033887
-0.4819107049999971	-0.1255367461425812
-0.4818496698437471	-0.13561014862648682
-0.4817886346874971	-0.1456326072686115
-0.4817275995312471	-0.15559813013752305
-0.4816665643749971	-0.16552160462258966
-0.4816055292187471	-0.17539529032821152
-0.4815444940624971	-0.18519892366983295
-0.4814834589062471	-0.1949395849502184
-0.4814224237499971	-0.20462696264693306
-0.4813613885937471	-0.21424237801393303
-0.4813003534374971	-0.22377489695170946
-0.4812393182812471	-0.23323938277648817
-0.4811782831249971	-0.24263353381570565
-0.4811172479687471	-0.2519352398369708
-0.4810562128124971	-0.2611471701024812
-0.4809951776562471	-0.27028330876199635
-0.4809341424999971	-0.27932825088101493
-0.4808731073437471	-0.2882655773460197
-0.4808120721874971	-0.29710927867575915
-0.4807510370312471	-0.3058636451033663
-0.4806900018749971	-0.3145056257364058
-0.4806289667187471	-0.32303197468753586
-0.4805679315624971	-0.33146038126180066
-0.4805068964062471	-0.33978062393637476
-0.4804458612499971	-0.3479707174883262
-0.4803848260937471	-0.35604197153369455
-0.4803237909374971	-0.3640064990962952
-0.4802627557812471	-0.3718416240095002
-0.4802017206249971	-0.37953623445315116
-0.4801406854687471	-0.3871113990263539
-0.4800796503124971	-0.3945644979874228
-0.4800186151562471	-0.4018678957752616
-0.4799575799999971	-0.4090280091341378
-0.4798965448437471	-0.41606536754814083
-0.4798355096874971	-0.42295981436155716
-0.4797744745312471	-0.42969101971361745
-0.4797134393749971	-0.4362815609035388
-0.4796524042187471	-0.44273894249759344
-0.4795913690624971	-0.44903103097786484
-0.4795303339062471	-0.45515609063442786
-0.4794692987499971	-0.46114336353789503
-0.4794082635937471	-0.46697876732934096
-0.4793472284374971	-0.4726313385737034
-0.4792861932812471	-0.4781222764945575
-0.4792251581249971	-0.4834717492456199
-0.4791641229687471	-0.48864505979989425
-0.4791030878124971	-0.49362880546774346
-0.4790420526562471	-0.49846032453066685
-0.4789810174999971	-0.5031358857272981
-0.4789199823437471	-0.507612953845817
-0.4788589471874971	-0.5119070764682219
-0.4787979120312471	-0.5160538721935849
-0.4787368768749971	-0.5200199200514207
-0.4786758417187471	-0.5237759890178255
-0.4786148065624971	-0.5273648498084368
-0.4785537714062471	-0.5307984770245318
-0.4784927362499971	-0.5340238840931066
-0.4784317010937471	-0.5370448853989214
-0.4783706659374971	-0.5399134106318434
-0.4783096307812471	-0.5426035154747438
-0.4782485956249971	-0.5450671577396162
-0.4781875604687471	-0.5473471323542533
-0.4781265253124971	-0.5494762768137003
-0.4780654901562471	-0.5513951842028487
-0.4780044549999971	-0.5530891160452809
-0.4779434198437471	-0.5546243942858716
-0.4778823846874971	-0.555990570825673
-0.4778213495312471	-0.5571201905042369
-0.4777603143749971	-0.5580476661347273
-0.4776992792187471	-0.5588301820195172
-0.4776382440624971	-0.559409788682951
-0.4775772089062471	-0.5597468199602449
-0.4775161737499971	-0.5599157533286133
-0.4774551385937471	-0.5599306389847797
-0.4773941034374971	-0.5597082729974169
-0.4773330682812471	-0.5592638053002362
-0.4772720331249971	-0.5586784388822376
-0.4772109979687471	-0.5579075432608367
-0.4771499628124971	-0.5568832459105538
-0.4770889276562471	-0.5556764893194256
-0.4770278924999971	-0.5543326998740674
-0.4769668573437471	-0.5527632123868393
-0.4769058221874971	-0.5509538003279745
-0.4768447870312471	-0.549002083368456
-0.4767837518749971	-0.5468893737728104
-0.4767227167187471	-0.544523406146707
-0.4766616815624971	-0.5419574183292953
-0.4766006464062471	-0.5392688630405699
-0.4765396112499971	-0.5363782991860764
-0.4764785760937471	-0.5332367867733365
-0.4764175409374971	-0.5299442502238569
-0.4763565057812471	-0.5265177549510044
-0.4762954706249971	-0.5228528205289464
-0.4762344354687471	-0.5189712853533306
-0.4761734003124971	-0.5149737566301538
-0.4761123651562471	-0.5108064022533388
-0.4760513299999971	-0.5063899659589782
-0.4759902948437471	-0.5018090825049696
-0.4759292596874971	-0.49711720200824366
-0.4758682245312471	-0.49221487100719846
-0.4758071893749971	-0.48708677813061957
-0.4757461542187471	-0.4818409815344612
-0.4756851190624971	-0.4764594749696284
-0.4756240839062471	-0.47084554188132516
-0.4755630487499971	-0.4650546415260002
-0.4755020135937471	-0.4591676322650423
-0.4754409784374971	-0.45310646429211726
-0.4753799432812471	-0.44682298617079846
-0.4753189081249971	-0.4404152250154795
-0.4752578729687471	-0.43390159847036247
-0.4751968378124971	-0.42718484054943934
-0.4751358026562471	-0.4202856781611736
-0.4750747674999971	-0.41329722324367124
-0.4750137323437471	-0.40617244869529284
-0.4749526971874971	-0.3988423833856938
-0.4748916620312471	-0.3913824720459832
-0.4748306268749971	-0.3838395302500651
-0.4747695917187471	-0.37612962825783974
-0.4747085565624971	-0.3682423062274418
-0.4746475214062471	-0.3602690181008113
-0.4745864862499971	-0.35219447473298426
-0.4745254510937471	-0.3439415859769829
-0.4744644159374971	-0.335558352807652
-0.4744033807812471	-0.32710922763349964
-0.4743423456249971	-0.318531888834603
-0.4742813104687471	-0.3097924378661552
-0.4742202753124971	-0.30096988905688205
-0.4741592401562471	-0.29207626391681585
-0.4740982049999971	-0.28303779851662136
-0.4740371698437471	-0.2738759727036909
-0.4739761346874971	-0.26466219584150713
-0.4739150995312471	-0.25535791147363496
-0.4738540643749971	-0.24591449397681064
-0.4737930292187471	-0.2363935954555304
-0.4737319940624971	-0.226828403621124
-0.4736709589062471	-0.21715539016201257
-0.4736099237499971	-0.20737228444788247
-0.4735488885937471	-0.19754900986590768
-0.4734878534374971	-0.18767119198448426
-0.4734268182812471	-0.1776842037163715
-0.4733657831249971	-0.16762889894350935
-0.4733047479687471	-0.15755161697379644
-0.4732437128124971	-0.14740473546722788
-0.4731826776562471	-0.13716824850048878
-0.4731216424999971	-0.12690320177137449
-0.4730606073437471	-0.11661586460414144
-0.4729995721874971	-0.10625354075001892
-0.4729385370312471	-0.09583706601310936
-0.4728775018749971	-0.0854183978771296
-0.4728164667187471	-0.07496715713296771
-0.4727554315624971	-0.06445166179510473
-0.4726943964062471	-0.05392094719550776
-0.4726333612499971	-0.04339748810538406
-0.4725723260937471	-0.032834730493944975
-0.4725112909374971	-0.022235534459026735
-0.4724502557812471	-0.01165204330565318
-0.4723892206249971	-0.0010716514107698197
-0.4723281854687471	0.009542854986478975
-0.4722671503124971	0.020157554370811986
-0.4722061151562471	0.030739836329602
-0.4721450799999971	0.041325350203526526
-0.4720840448437471	0.05192457949792072
-0.4720230096874971	0.06249093456534233
-0.4719619745312471	0.07302206207510217
-0.4719009393749971	0.08355519104335259
-0.4718399042187471	0.09407105027106147
-0.4717788690624971	0.1045319348946218
-0.4717178339062471	0.11496105896542626
-0.4716567987499971	0.1253782388288212
-0.4715957635937471	0.13574590495299818
-0.4715347284374971	0.14604970184028482
-0.4714736932812471	0.1563221634855531
-0.4714126581249971	0.1665570677864181
-0.4713516229687471	0.1767170225792537
-0.4712905878124971	0.1868132128147756
-0.4712295526562471	0.19686958099852658
-0.4711685174999971	0.206858615888826
-0.4711074823437471	0.2167589174525552
-0.4710464471874971	0.22659652644044898
-0.4709854120312471	0.23637448603701472
-0.4709243768749971	0.24605831337097678
-0.4708633417187471	0.25564938140339877
-0.4708023065624971	0.2651725967894346
-0.4707412714062471	0.2746099953850317
-0.4706802362499971	0.2839365044507594
-0.4706192010937471	0.2931708158370015
-0.4705581659374971	0.3023224880752693
-0.4704971307812471	0.31136237832928587
-0.4704360956249971	0.3202844710534331
-0.4703750604687471	0.3291116306025745
-0.4703140253124971	0.33783373752065365
-0.4702529901562471	0.34642516070869595
-0.4701919549999971	0.3548981199176465
-0.4701309198437471	0.363265725176805
-0.4700698846874971	0.3715042034498096
-0.4700088495312471	0.3796028973463863
-0.4699478143749971	0.38758196850247734
-0.4698867792187471	0.3954373635963041
-0.4698257440624971	0.4031444772114652
-0.4697647089062471	0.4107100470944366
-0.4697036737499971	0.4181489388930204
-0.4696426385937471	0.4254426018233502
-0.4695816034374971	0.4325774432283886
