Time	Frequency
-0.5000560512812484	-0.5098382885813013
-0.4999950161249984	-0.5034916395098538
-0.4999339809687484	-0.4968658701360323
-0.4998729458124984	-0.4900383847383326
-0.4998119106562484	-0.4830263527752056
-0.4997508754999984	-0.47576033264695455
-0.4996898403437484	-0.46822599803971965
-0.4996288051874984	-0.46049704819613163
-0.4995677700312484	-0.452597579001667
-0.4995067348749984	-0.4444631984933556
-0.4994456997187484	-0.43607387915753365
-0.4993846645624984	-0.427498461592897
-0.4993236294062484	-0.418767062904563
-0.4992625942499984	-0.4098213742571755
-0.4992015590937484	-0.4006370343046079
-0.4991405239374984	-0.3912777007306463
-0.4990794887812484	-0.3817777340838745
-0.4990184536249984	-0.3720844535406627
-0.4989574184687484	-0.36217014790466023
-0.4988963833124984	-0.35209318744464224
-0.4988353481562484	-0.34189151413620245
-0.4987743129999984	-0.33151874713962487
-0.4987132778437484	-0.3209454191333317
-0.4986522426874984	-0.3102245790574504
-0.4985912075312484	-0.29939544721098804
-0.4985301723749984	-0.2884169976233793
-0.4984691372187484	-0.27725985109815166
-0.4984081020624984	-0.26597291392990885
-0.4983470669062484	-0.25459539562060707
-0.4982860317499984	-0.24309014086652517
-0.4982249965937484	-0.23142805731230667
-0.4981639614374984	-0.21965505585924516
-0.4981029262812484	-0.2078108515918491
-0.4980418911249984	-0.19586166508227776
-0.4979808559687484	-0.1837785863887735
-0.4979198208124984	-0.1716051398363493
-0.4978587856562484	-0.15938138254167802
-0.4977977504999984	-0.1470756783083353
-0.4977367153437484	-0.13465829666569762
-0.4976756801874984	-0.12217065838040926
-0.4976146450312484	-0.10965423972729052
-0.4975536098749984	-0.09708042646121824
-0.4974925747187484	-0.0844190525789938
-0.4974315395624984	-0.07170936889039843
-0.4973705044062484	-0.05899312212097627
-0.4973094692499984	-0.04624264952968912
-0.4972484340937484	-0.033427091459891
-0.4971873989374984	-0.020585255980833564
-0.4971263637812484	-0.007760588071229336
-0.4970653286249984	0.00507310118518997
-0.4970042934687484	0.017948618984071657
-0.4969432583124984	0.03082895695708381
-0.4968822231562484	0.0436683895056754
-0.4968211879999984	0.056491303339730146
-0.4967601528437484	0.06933306088629891
-0.4966991176874984	0.08215899795938679
-0.4966380825312484	0.0949208591530631
-0.4965770473749984	0.10763994017272606
-0.4965160122187484	0.12035398983685697
-0.4964549770624984	0.13303181843242942
-0.4963939419062484	0.14562291286399318
-0.4963329067499984	0.15814515537077303
-0.4962718715937484	0.17063857716505823
-0.4962108364374984	0.1830755038594355
-0.4961498012812484	0.1954035701003937
-0.4960887661249984	0.20763743215255007
-0.4960277309687484	0.21981922546683125
-0.4959666958124984	0.23192521734745294
-0.4959056606562484	0.24390112898608024
-0.4958446254999984	0.2557568188008115
-0.4957835903437484	0.26753601821962275
-0.4957225551874984	0.279220700824322
-0.4956615200312484	0.29075624053107935
-0.4956004848749984	0.30214773712654974
-0.4955394497187484	0.3134394802618924
-0.4954784145624984	0.3246181400415741
-0.4954173794062484	0.33562876283913246
-0.4953563442499984	0.3464717195565704
-0.4952953090937484	0.3571915615703777
-0.4952342739374984	0.36778047490084415
-0.4951732387812484	0.37818471338531506
-0.4951122036249984	0.38840035394329364
-0.4950511684687484	0.3984710077754996
-0.4949901333124984	0.4083929382046914
-0.4949290981562484	0.4181134417985251
-0.4948680629999984	0.4276248859938794
-0.4948070278437484	0.43697052660111346
-0.4947459926874984	0.4461515548037005
-0.4946849575312484	0.4551170517499974
-0.4946239223749984	0.4638553381350311
-0.4945628872187484	0.4724076997293388
-0.4945018520624984	0.48077922453005895
-0.4944408169062484	0.4889219385999233
-0.4943797817499984	0.49682153224266
-0.4943187465937484	0.5045172292544453
-0.4942577114374984	0.5120172633675875
-0.4941966762812484	0.5192762596758
-0.4941356411249984	0.526277848014774
-0.4940746059687484	0.5330595506700624
-0.4940135708124984	0.5396321309915757
-0.4939525356562484	0.5459527550244376
-0.4938915004999984	0.552003686511257
-0.4938304653437484	0.557820860888998
-0.4937694301874984	0.5634169374542031
-0.4937083950312484	0.5687512698460572
-0.4936473598749984	0.5738052340978704
-0.4935863247187484	0.5786135697536979
-0.4935252895624984	0.5831906713188518
-0.4934642544062484	0.5874980384083456
-0.4934032192499984	0.5915164464343856
-0.4933421840937484	0.595279550836529
-0.4932811489374984	0.5988031298138033
-0.4932201137812484	0.602050455151966
-0.4931590786249984	0.6050017443373377
-0.4930980434687484	0.6076900097378782
-0.4930370083124984	0.6101327371587489
-0.4929759731562484	0.6122946318005947
-0.4929149379999984	0.6141551175654746
-0.4928539028437484	0.6157469990352268
-0.4927928676874984	0.6170895045982613
-0.4927318325312484	0.6181483441262076
-0.4926707973749984	0.6189022872999281
-0.4926097622187484	0.6193843574153145
-0.4925487270624984	0.6196154867938862
-0.4924876919062484	0.619561863947475
-0.4924266567499984	0.6192012842007746
-0.4923656215937484	0.6185675756576455
-0.4923045864374984	0.6176839789222021
-0.4922435512812484	0.6165167487473574
-0.4921825161249984	0.6150421631546723
-0.4921214809687484	0.6132949878418761
-0.4920604458124984	0.6113012237964794
-0.4919994106562484	0.6090274435253836
-0.4919383754999984	0.6064479379071754
-0.4918773403437484	0.6035977863712185
-0.4918163051874984	0.6005060947419963
-0.4917552700312484	0.5971403788462768
-0.4916942348749984	0.5934728863215735
-0.4916331997187484	0.5895387342873445
-0.4915721645624984	0.5853700080379478
-0.4915111294062484	0.5809351154074447
-0.4914500942499984	0.5762041748715563
-0.4913890590937484	0.5712123916235166
-0.4913280239374984	0.5659953349819392
-0.4912669887812484	0.5605224032138011
-0.4912059536249984	0.5547607391804621
-0.4911449184687484	0.5487451844101449
-0.4910838833124984	0.5425154483048164
-0.4910228481562484	0.536042789570813
-0.4909618129999984	0.5292912757595699
-0.4909007778437484	0.5222943926246209
-0.4908397426874984	0.5150957030624975
-0.4907787075312484	0.5076688041197716
-0.4907176723749984	0.49997458470255074
-0.4906566372187484	0.4920448685109991
-0.4905956020624984	0.4839275144865946
-0.4905345669062484	0.47559920362624386
-0.4904735317499984	0.467017574849586
-0.4904124965937484	0.4582118100699158
-0.4903514614374984	0.44923357010580683
-0.4902904262812484	0.4400630477287362
-0.4902293911249984	0.4306546768510126
-0.4901683559687484	0.42103463834810967
-0.4901073208124984	0.4112588109568442
-0.4900462856562484	0.4013115896075861
-0.4899852504999984	0.39114406380528016
-0.4899242153437484	0.38077883418879477
-0.4898631801874984	0.370275805379657
-0.4898021450312484	0.359623801838476
-0.4897411098749984	0.3487703141093684
-0.4896800747187484	0.33773329099414695
-0.4896190395624984	0.3265768261045941
-0.4895580044062484	0.3152961381111173
-0.4894969692499984	0.30383564975692395
-0.4894359340937484	0.29220695940647473
-0.4893748989374984	0.2804772671009694
-0.4893138637812484	0.26864874522568405
-0.4892528286249984	0.2566634360461861
-0.4891917934687484	0.2445263344874672
-0.4891307583124984	0.23230748385041133
-0.4890697231562484	0.22001686186974065
-0.4890086879999984	0.20759469198497135
-0.4889476528437484	0.19503782100956066
-0.4888866176874984	0.18241749643260444
-0.4888255825312484	0.16975217020421052
-0.4887645473749984	0.15698175700609068
-0.4887035122187484	0.14409547634816852
-0.4886424770624984	0.13116524028894372
-0.4885814419062484	0.11821757387989787
-0.4885204067499984	0.10519231667615057
-0.4884593715937484	0.09207042502093081
-0.4883983364374984	0.07892379231525708
-0.4883373012812484	0.06578792860217972
-0.4882762661249984	0.05260300278485189
-0.4882152309687484	0.03934030812984037
-0.4881541958124984	0.026070731734500925
-0.4880931606562484	0.01284012085727278
-0.4880321254999984	-0.00040865590932336163
-0.4879710903437484	-0.013713841567047374
-0.4879100551874984	-0.02700786883132316
-0.4878490200312484	-0.040236226004861014
-0.4877879848749984	-0.053452807504083634
-0.4877269497187484	-0.0667045499406993
-0.4876659145624984	-0.07992790306098858
-0.4876048794062484	-0.09305929748880962
-0.4875438442499984	-0.10614689913986795
-0.4874828090937484	-0.11924652561884885
-0.4874217739374984	-0.13230174536573144
-0.4873607387812484	-0.14524080647905582
-0.4872997036249984	-0.1581044235578282
-0.4872386684687484	-0.17095630671445605
-0.4871776333124984	-0.18374808347444616
-0.4871165981562484	-0.19640106852548334
-0.4870555629999984	-0.20894770961825257
-0.4869945278437484	-0.22145789134064003
-0.4869334926874984	-0.2338920303815884
-0.4868724575312484	-0.24616618597678788
-0.4868114223749984	-0.25830371907340327
-0.4867503872187484	-0.2703794809691892
-0.4866893520624984	-0.2823642624894225
-0.4866283169062484	-0.29417082109289056
-0.4865672817499984	-0.3058122354053695
-0.4865062465937484	-0.3173656081923141
-0.4864452114374984	-0.3288120764716027
-0.4863841762812484	-0.34006373101096105
-0.4863231411249984	-0.3511240787933895
-0.4862621059687484	-0.36207034896278684
-0.4862010708124984	-0.3728937366853385
-0.4861400356562484	-0.3835078636283028
-0.4860790004999984	-0.39390687986261885
-0.4860179653437484	-0.40416607018023104
-0.4859569301874984	-0.4142861314785757
-0.4858958950312484	-0.4241839863506242
-0.4858348598749984	-0.43384549022755364
-0.4857738247187484	-0.4433425995907097
-0.4857127895624984	-0.45268434743319447
-0.4856517544062484	-0.4617924293531574
-0.4855907192499984	-0.47064581785726617
-0.4855296840937484	-0.47931175342026494
-0.4854686489374984	-0.48780623568229914
-0.4854076137812484	-0.4960569310249221
-0.4853465786249984	-0.5040371744550454
-0.4852855434687484	-0.5118085308213464
-0.4852245083124984	-0.5193924599653198
-0.4851634731562484	-0.5267232581233666
-0.4851024379999984	-0.5337707939559885
-0.4850414028437484	-0.5405911791249866
-0.4849803676874984	-0.5472094535154136
-0.4849193325312484	-0.5535659501490401
-0.4848582973749984	-0.5596283323511277
-0.4847972622187484	-0.5654476151075439
-0.4847362270624984	-0.5710512737063668
-0.4846751919062484	-0.5763855018529939
-0.4846141567499984	-0.581417186829966
-0.4845531215937484	-0.5861927167513566
-0.4844920864374984	-0.5907405703379324
-0.4844310512812484	-0.5950120490496504
-0.4843700161249984	-0.5989746300556232
-0.4843089809687484	-0.60267129041896
-0.4842479458124984	-0.6061306615222237
-0.4841869106562484	-0.6093076726993476
-0.4841258754999984	-0.6121704261644867
-0.4840648403437484	-0.6147598648938384
-0.4840038051874984	-0.6171053991885513
-0.4839427700312484	-0.6191646280863052
-0.4838817348749984	-0.6209055566368396
-0.4838206997187484	-0.6223676364645645
-0.4837596645624984	-0.6235815300922312
-0.4836986294062484	-0.6245073046274175
-0.4836375942499984	-0.625112846514175
-0.4835765590937484	-0.62543648077969
-0.4835155239374984	-0.6255100332843943
-0.4834544887812484	-0.6252952120149529
-0.4833934536249984	-0.6247594238898465
-0.4833324184687484	-0.6239407018491685
-0.4832713833124984	-0.6228729938920672
-0.4832103481562484	-0.6215194939378589
-0.4831493129999984	-0.6198460366203855
-0.4830882778437484	-0.6178899457579815
-0.4830272426874984	-0.615688118742784
-0.4829662075312484	-0.6132057800170013
-0.4829051723749984	-0.6104066326833202
-0.4828441372187484	-0.6073265501723655
-0.4827831020624984	-0.6040057267550657
-0.4827220669062484	-0.6004124712149983
-0.4826610317499984	-0.5965082301938126
-0.4825999965937484	-0.5923264302174956
-0.4825389614374984	-0.5879105393144736
-0.4824779262812484	-0.5832324188724288
-0.4824168911249984	-0.5782511740419425
-0.4823558559687484	-0.5729976556984269
-0.4822948208124984	-0.5675187029203058
-0.4822337856562484	-0.561790036771796
-0.4821727504999984	-0.5557685522395175
-0.4821117153437484	-0.5494816665973489
-0.4820506801874984	-0.542979091258721
-0.4819896450312484	-0.5362414501402682
-0.4819286098749984	-0.5292240215461904
-0.4818675747187484	-0.5219499560593562
-0.4818065395624984	-0.5144711913511176
-0.4817455044062484	-0.5067736842064077
-0.4816844692499984	-0.49881174452120774
-0.4816234340937484	-0.4906040341867584
-0.4815623989374984	-0.4822040189263678
-0.4815013637812484	-0.4736031041011168
-0.4814403286249984	-0.46475535761803755
-0.4813792934687484	-0.45567470710753527
-0.4813182583124984	-0.4464150286378552
-0.4812572231562484	-0.4369731747015304
-0.4811961879999984	-0.4273041757123606
-0.4811351528437484	-0.41741768407311786
-0.4810741176874984	-0.40736727925742233
-0.4810130825312484	-0.397154548402792
-0.4809520473749984	-0.3867355064998312
-0.4808910122187484	-0.3761157996463833
-0.4808299770624984	-0.36534838376059664
-0.4807689419062484	-0.3544395271196968
-0.4807079067499984	-0.3433471746361717
-0.4806468715937484	-0.33207324518257375
-0.4805858364374984	-0.32066907781813614
-0.4805248012812484	-0.30914503009174915
-0.4804637661249984	-0.2974612954370278
-0.4804027309687484	-0.28561641943338695
-0.4803416958124984	-0.2736597730199468
-0.4802806606562484	-0.26160504128771006
-0.4802196254999984	-0.2494151490773593
-0.4801585903437484	-0.23708664176268682
-0.4800975551874984	-0.22466703004306285
-0.4800365200312484	-0.2121723109806635
-0.4799754848749984	-0.19956735984812018
-0.4799144497187484	-0.1868467042054543
-0.4798534145624984	-0.1740560253179535
-0.4797923794062484	-0.1612129892241971
-0.4797313442499984	-0.14828473526468738
-0.4796703090937484	-0.1352656041375962
-0.4796092739374984	-0.12220009838509456
-0.4795482387812484	-0.1091062644945051
-0.4794872036249984	-0.09595188909486393
-0.4794261684687484	-0.08273018824114817
-0.4793651333124984	-0.0694849535696847
-0.4793040981562484	-0.056236126858690526
-0.4792430629999984	-0.042953155845865044
-0.4791820278437484	-0.029628001551409034
-0.4791209926874984	-0.01630329928548309
-0.4790599575312484	-0.0030000258073553067
-0.4789989223749984	0.010312051255180726
-0.4789378872187484	0.02364229668627468
-0.4788768520624984	0.03694860495472266
-0.4788158169062484	0.050208822739484876
-0.4787547817499984	0.06345220277155948
-0.4786937465937484	0.07668860668541636
-0.4786327114374984	0.08987597003235136
-0.4785716762812484	0.10299139031288035
-0.4785106411249984	0.11606542037750489
-0.4784496059687484	0.12910994748012453
-0.4783885708124984	0.14208163290960016
-0.4783275356562484	0.15495520654433542
-0.4782665004999984	0.1677623080280649
-0.4782054653437484	0.18051732155948416
-0.4781444301874984	0.1931765027529371
-0.4780833950312484	0.20571230578690147
-0.4780223598749984	0.21815637539687505
-0.4779613247187484	0.23052573667108503
-0.4779002895624984	0.2427772244537553
-0.4778392544062484	0.25488096527776205
-0.4777782192499984	0.26686876328664255
-0.4777171840937484	0.2787604237466653
-0.4776561489374984	0.2905127903505813
-0.4775951137812484	0.3020936626532334
-0.4775340786249984	0.31353534401002875
-0.4774730434687484	0.32486058658965017
-0.4774120083124984	0.33602598007980494
-0.4773509731562484	0.3469962479735724
-0.4772899379999984	0.35780441533102986
-0.4772289028437484	0.3684776855990611
-0.4771678676874984	0.37897338421256965
-0.4771068325312484	0.3892519503363924
-0.4770457973749984	0.3993452842743599
-0.4769847622187484	0.40928537410500876
-0.4769237270624984	0.41903162379545406
-0.4768626919062484	0.42854076864871066
-0.4768016567499984	0.43784341490379547
-0.4767406215937484	0.4469756807208831
-0.4766795864374984	0.45589913904560625
-0.4766185512812484	0.46456720636750937
-0.4765575161249984	0.4730087474742175
-0.4764964809687484	0.481264090257423
-0.4764354458124984	0.4892976647503959
-0.4763744106562484	0.497059166061221
-0.4763133754999984	0.5045750120259903
-0.4762523403437484	0.5118904112532648
-0.4761913051874984	0.5189735054321006
-0.4761302700312484	0.5257698265157161
-0.4760692348749984	0.5323027191314555
-0.4760081997187484	0.5386225075465163
-0.4759471645624984	0.5447016017687176
-0.4758861294062484	0.5504813377259695
-0.4758250942499984	0.5559810921242055
-0.4757640590937484	0.5612562328158207
-0.4757030239374984	0.5662850015574349
-0.4756419887812484	0.5710048947121145
-0.4755809536249984	0.5754296913497358
-0.4755199184687484	0.5796192956197942
-0.4754588833124984	0.5835588533584128
-0.4753978481562484	0.5871824790707971
-0.4753368129999984	0.5904978422206888
-0.4752757778437484	0.5935691627975852
-0.4752147426874984	0.5963892802760246
-0.4751537075312484	0.5988893903484278
-0.4750926723749984	0.601069890096064
-0.4750316372187484	0.6029983929075922
-0.4749706020624984	0.6046763491579104
-0.4749095669062484	0.6060330823984569
-0.4748485317499984	0.6070613568779796
-0.4747874965937484	0.6078314379617633
-0.4747264614374984	0.6083537431517154
-0.4746654262812484	0.6085563667576056
-0.4746043911249984	0.6084237457734316
-0.4745433559687484	0.6080280032913059
-0.4744823208124984	0.6073894512827955
-0.4744212856562484	0.6064359418028538
-0.4743602504999984	0.6051426506366956
-0.4742992153437484	0.6035823790024909
-0.4742381801874984	0.601786152873203
-0.4741771450312484	0.5996830070229818
-0.4741161098749984	0.5972382858237075
-0.4740550747187484	0.594523950753716
-0.4739940395624984	0.5915820826139371
-0.4739330044062484	0.5883444223079405
-0.4738719692499984	0.5847661935101115
-0.4738109340937484	0.5809166738110412
-0.4737498989374984	0.5768491005522707
-0.4736888637812484	0.5725001145470248
-0.4736278286249984	0.5678151348963101
-0.4735667934687484	0.5628586204812457
-0.4735057583124984	0.5576943272445848
-0.4734447231562484	0.5522656617822577
-0.4733836879999984	0.5465089164846518
-0.4733226528437484	0.5404818823524091
-0.4732616176874984	0.534257820307573
-0.4732005825312484	0.5277886246111122
-0.4731395473749984	0.5210029977343495
-0.4730785122187484	0.5139505076896691
-0.4730174770624984	0.5067120223062291
-0.4729564419062484	0.4992493659803992
-0.4728954067499984	0.49148545906776636
-0.4728343715937484	0.4834601810467647
-0.4727733364374984	0.47526024549418544
-0.4727123012812484	0.4668586822682942
-0.4726512661249984	0.45817467783020377
-0.4725902309687484	0.44923750229093545
-0.4725291958124984	0.4401369421335563
-0.4724681606562484	0.4308573468077883
-0.4724071254999984	0.42131716183285384
-0.4723460903437484	0.41153556585768536
-0.4722850551874984	0.4016027562053453
-0.4722240200312484	0.3915137354790762
-0.4721629848749984	0.38118815173729087
-0.4721019497187484	0.3706352690472894
-0.4720409145624984	0.35994399373501434
-0.4719798794062484	0.3491199967903141
-0.4719188442499984	0.3380863008478085
-0.4718578090937484	0.32684293554745847
-0.4717967739374984	0.3154746616797593
-0.4717357387812484	0.30399565516416327
-0.4716747036249984	0.2923344260034715
-0.4716136684687484	0.28048400403710116
-0.4715526333124984	0.26852408615714146
-0.4714915981562484	0.2564762899578275
-0.4714305629999984	0.24427522096788126
-0.4713695278437484	0.23190768312164578
-0.4713084926874984	0.21944736397131503
-0.4712474575312484	0.20692112598668985
-0.4711864223749984	0.19426987570346657
-0.4711253872187484	0.1814768583991481
-0.4710643520624984	0.16861028227173874
-0.4710033169062484	0.15570047120584582
-0.4709422817499984	0.1426942661396003
-0.4708812465937484	0.12957229433261327
-0.4708202114374984	0.11639706536238136
-0.4707591762812484	0.10320115725716952
-0.4706981411249984	0.08993726198021153
-0.4706371059687484	0.07658490692127586
-0.4705760708124984	0.06320125161422196
-0.4705150356562484	0.04981900652656046
-0.4704540004999984	0.03639583823879327
-0.4703929653437484	0.022912358146335517
-0.4703319301874984	0.009422226804527896
-0.4702708950312484	-0.004042639107445272
-0.4702098598749984	-0.017522246591434018
-0.4701488247187484	-0.0310361411682861
-0.4700877895624984	-0.0445325249977923
-0.4700267544062484	-0.057978481289010675
-0.4699657192499984	-0.07141185773538779
-0.4699046840937484	-0.08485317017597259
-0.4698436489374984	-0.09825289646105076
-0.4697826137812484	-0.11157780611119164
-0.4697215786249984	-0.12486412210185412
-0.4696605434687484	-0.13813239148937345
-0.4695995083124984	-0.15133373379754259
-0.4695384731562484	-0.1644343568863342
-0.4694774379999984	-0.17747076845500132
