Time	Frequency
-0.5000362390312532	-0.4534232799265409
-0.49997520387500316	-0.45787825431788326
-0.49991416871875316	-0.46208953893116933
-0.49985313356250316	-0.4661944773388688
-0.49979209840625316	-0.4702939538233212
-0.49973106325000316	-0.4743326112652979
-0.49967002809375316	-0.47815870463456767
-0.49960899293750316	-0.4816973153094667
-0.49954795778125316	-0.48503788777450035
-0.49948692262500316	-0.4883325396326195
-0.49942588746875316	-0.4916192644327847
-0.49936485231250316	-0.4947738153457688
-0.49930381715625316	-0.49764891815597373
-0.49924278200000316	-0.5002435342733527
-0.49918174684375316	-0.5027067380296624
-0.49912071168750316	-0.5051676894161886
-0.49905967653125316	-0.5075843963518645
-0.49899864137500316	-0.5097869892631611
-0.49893760621875316	-0.5116701439297108
-0.49887657106250316	-0.5133157031856694
-0.49881553590625316	-0.5149022074722696
-0.49875450075000316	-0.5165006413583286
-0.49869346559375316	-0.5179891593577113
-0.49863243043750316	-0.5191879281435501
-0.49857139528125316	-0.5200642248358798
-0.49851036012500316	-0.5207734403829699
-0.49844932496875316	-0.5214847009314021
-0.49838828981250316	-0.5221863394968648
-0.49832725465625316	-0.5226944031171742
-0.49826621950000316	-0.5228593985942859
-0.49820518434375316	-0.5227386018731479
-0.49814414918750316	-0.5225353339031416
-0.49808311403125316	-0.5223693068901831
-0.49802207887500316	-0.5221372731802272
-0.49796104371875316	-0.5216258611907554
-0.49790000856250316	-0.5207533841158432
-0.49783897340625316	-0.5196666925880069
-0.49777793825000316	-0.5185787506896975
-0.49771690309375316	-0.517526867648738
-0.49765586793750316	-0.5163263589151785
-0.49759483278125316	-0.5147768558014202
-0.49753379762500316	-0.5128910132281465
-0.49747276246875316	-0.5108851560797586
-0.49741172731250316	-0.5089376591694638
-0.49735069215625316	-0.5069855621159862
-0.49728965700000316	-0.5047917303706316
-0.49722862184375316	-0.5022117023893197
-0.49716758668750316	-0.4993607784891455
-0.49710655153125316	-0.4964891131364
-0.49704551637500316	-0.4937008452117127
-0.49698448121875316	-0.49083367886495427
-0.49692344606250316	-0.4876390135989493
-0.49686241090625316	-0.4840635702695322
-0.49680137575000316	-0.4803145999369158
-0.49674034059375316	-0.4766308002609502
-0.49667930543750316	-0.4730133609029616
-0.49661827028125316	-0.4692214094537066
-0.49655723512500316	-0.46504193655193266
-0.49649619996875316	-0.46053295906206854
-0.49643516481250316	-0.45596385554130986
-0.49637412965625316	-0.45151550419584857
-0.49631309450000316	-0.44707556319594455
-0.49625205934375316	-0.44236206370209397
-0.49619102418750316	-0.4372410895923325
-0.49612998903125316	-0.431882354310955
-0.49606895387500316	-0.4265739490050565
-0.49600791871875316	-0.4214002986723743
-0.49594688356250316	-0.41614528821716334
-0.49588584840625316	-0.41053344088546956
-0.49582481325000316	-0.404541857627747
-0.49576377809375316	-0.39843180932579053
-0.49570274293750316	-0.3924600706104603
-0.49564170778125316	-0.38659121198682556
-0.49558067262500316	-0.38053555461838834
-0.49551963746875316	-0.3740741389366882
-0.49545860231250316	-0.3673083032723999
-0.49539756715625316	-0.36055201894717354
-0.49533653200000316	-0.35398343256714215
-0.49527549684375316	-0.34744479450988425
-0.49521446168750316	-0.34061799723409386
-0.49515342653125316	-0.3333827928380851
-0.49509239137500316	-0.3259567355249704
-0.49503135621875316	-0.3186567845553526
-0.49497032106250316	-0.31154651886593004
-0.49490928590625316	-0.30436449470474775
-0.49484825075000316	-0.29681712880326755
-0.49478721559375316	-0.2889105051748004
-0.49472618043750316	-0.28094887065467483
-0.49466514528125316	-0.27319867954494625
-0.49460411012500316	-0.26559209191241556
-0.49454307496875316	-0.2578026338502961
-0.49448203981250316	-0.2496115307773668
-0.49442100465625316	-0.24115650334062255
-0.49435996950000316	-0.23278293928764726
-0.49429893434375316	-0.22466139432578386
-0.49423789918750316	-0.21659849683100807
-0.49417686403125316	-0.20825385226465123
-0.49411582887500316	-0.19952248728560953
-0.49405479371875316	-0.19065627010068362
-0.49399375856250316	-0.18198732990611596
-0.49393272340625316	-0.1735604037567888
-0.49387168825000316	-0.1650841651668545
-0.49381065309375316	-0.15625785274447784
-0.49374961793750316	-0.14711040796924293
-0.49368858278125316	-0.13797250180220372
-0.49362754762500316	-0.1291111893815231
-0.49356651246875316	-0.1204347789373687
-0.49350547731250316	-0.1115973613886481
-0.49344444215625316	-0.10238707253372951
-0.49338340700000316	-0.09296545278488773
-0.49332237184375316	-0.08369086345361142
-0.49326133668750316	-0.07472277467523322
-0.49320030153125316	-0.06584714490272503
-0.49313926637500316	-0.056717369489922405
-0.49307823121875316	-0.047243512891349475
-0.49301719606250316	-0.03769582763272994
-0.49295616090625316	-0.028406492518477315
-0.49289512575000316	-0.019402891087543287
-0.49283409059375316	-0.0103810654564742
-0.49277305543750316	-0.001047449667537842
-0.49271202028125316	0.008551705755036502
-0.49265098512500316	0.01807923030483817
-0.49258994996875316	0.027279605125745753
-0.49252891481250316	0.03625964075784544
-0.49246787965625316	0.045364994398560086
-0.49240684450000316	0.05479206361739708
-0.49234580934375316	0.06436770328351574
-0.49228477418750316	0.0737400468115271
-0.49222373903125316	0.08276674183664513
-0.49216270387500316	0.09166870174754521
-0.49210166871875316	0.10077957087342114
-0.49204063356250316	0.1101716427342054
-0.49197959840625316	0.11957449157235985
-0.49191856325000316	0.12867433325919733
-0.49185752809375316	0.13745920757102928
-0.49179649293750316	0.1462266503805213
-0.49173545778125316	0.15524797161523218
-0.49167442262500316	0.16446451913879934
-0.49161338746875316	0.1735526903703641
-0.49155235231250316	0.18228239237348012
-0.49149131715625316	0.19076827239705937
-0.49143028200000316	0.19933591687519667
-0.49136924684375316	0.20815561220927417
-0.49130821168750316	0.2170524096515368
-0.49124717653125316	0.2257011709913855
-0.49118614137500316	0.233985711242607
-0.49112510621875316	0.2421217483594348
-0.49106407106250316	0.2504105172219498
-0.49100303590625316	0.2589012063994761
-0.49094200075000316	0.267337460722333
-0.49088096559375316	0.2754428971692012
-0.49081993043750316	0.28322453347135323
-0.49075889528125316	0.29095786207627977
-0.49069786012500316	0.2988747197700806
-0.49063682496875316	0.3069045552482954
-0.49057578981250316	0.314755009940426
-0.49051475465625316	0.3222366796210973
-0.49045371950000316	0.329468258357234
-0.49039268434375316	0.3367371150210471
-0.49033164918750316	0.34417552397608725
-0.49027061403125316	0.3516145056562231
-0.49020957887500316	0.35877429851439224
-0.49014854371875316	0.36557377524339024
-0.49008750856250316	0.37221362982715706
-0.49002647340625316	0.378946046056004
-0.48996543825000316	0.385792090999156
-0.48990440309375316	0.39252091432210645
-0.48984336793750316	0.3989086123561667
-0.48978233278125316	0.4049839463459773
-0.48972129762500316	0.4109886350567584
-0.48966026246875316	0.41710231080770327
-0.48959922731250316	0.42324263013973923
-0.48953819215625316	0.42916078322457263
-0.48947715700000316	0.4347193468369905
-0.48941612184375316	0.4400398154745228
-0.48935508668750316	0.44535939925020285
-0.48929405153125316	0.4507630332091367
-0.48923301637500316	0.45609119688348126
-0.48917198121875316	0.4611216267470083
-0.48911094606250316	0.4658160037038236
-0.48904991090625316	0.47035576109484317
-0.48898887575000316	0.4749327518489011
-0.48892784059375316	0.4795339337731579
-0.48886680543750316	0.48395986730648416
-0.48880577028125316	0.48805046449819145
-0.48874473512500316	0.49186079418975853
-0.48868369996875316	0.4955920463176391
-0.48862266481250316	0.4993614973285516
-0.48856162965625316	0.503072741871318
-0.48850059450000316	0.5065282874936662
-0.48843955934375316	0.5096519565231546
-0.48837852418750316	0.5125692181580991
-0.48831748903125316	0.5154595331920326
-0.48825645387500316	0.518352712638294
-0.48819541871875316	0.5210990614450083
-0.48813438356250316	0.523541607688512
-0.48807334840625316	0.5256915494416905
-0.48801231325000316	0.5277098654730845
-0.48795127809375316	0.5297208436448089
-0.48789024293750316	0.5316721878446694
-0.48782920778125316	0.5333985101474378
-0.48776817262500316	0.5348108782422986
-0.48770713746875316	0.5359945471559892
-0.48764610231250316	0.5371068445439693
-0.48758506715625316	0.5381962424200893
-0.48752403200000316	0.5391497837789055
-0.48746299684375316	0.5398253954432761
-0.48740196168750316	0.5402142041626321
-0.48734092653125316	0.5404471613597843
-0.48727989137500316	0.5406417968609795
-0.48721885621875316	0.5407676921557213
-0.48715782106250316	0.5406843533881683
-0.48709678590625316	0.5403047894409061
-0.48703575075000316	0.5396947226017568
-0.48697471559375316	0.5389943730290115
-0.48691368043750316	0.5382555200032352
-0.48685264528125316	0.5373828908253511
-0.48679161012500316	0.5362463436074177
-0.48673057496875316	0.5348324653741752
-0.48666953981250316	0.5332597793329383
-0.48660850465625316	0.5316406927309697
-0.48654746950000316	0.5299510558922124
-0.48648643434375316	0.528058897994888
-0.48642539918750316	0.5258787585597825
-0.48636436403125316	0.5234722789613495
-0.48630332887500316	0.5209778533773741
-0.48624229371875316	0.5184502545916877
-0.48618125856250316	0.5157965146073276
-0.48612022340625316	0.51288384443131
-0.48605918825000316	0.5096954718667883
-0.48599815309375316	0.506352996636809
-0.48593711793750316	0.502977372385296
-0.48587608278125316	0.4995484561326534
-0.48581504762500316	0.495927118796811
-0.48575401246875316	0.4920168717649102
-0.48569297731250316	0.4878787692295469
-0.48563194215625316	0.4836647624258878
-0.48557090700000316	0.47944385544076
-0.48550987184375316	0.4751212049446844
-0.48544883668750316	0.47054614228098474
-0.48538780153125316	0.465687810865799
-0.48532676637500316	0.460675788042545
-0.48526573121875316	0.4556551753663918
-0.48520469606250316	0.4506199132462303
-0.48514366090625316	0.44541744457332055
-0.48508262575000316	0.43992384548364283
-0.48502159059375316	0.43419041410927267
-0.48496055543750316	0.4283908743755179
-0.48489952028125316	0.42262533646362754
-0.48483848512500316	0.4168042870834463
-0.48477744996875316	0.41074897748423833
-0.48471641481250316	0.40439764339627254
-0.48465537965625316	0.39788198856279366
-0.48459434450000316	0.39138278417141426
-0.48453330934375316	0.384925343423171
-0.48447227418750316	0.37834835094791464
-0.48441123903125316	0.3714866857491466
-0.48435020387500316	0.36436378090542043
-0.48428916871875316	0.3571721402846022
-0.48422813356250316	0.3500588188596566
-0.48416709840625316	0.34295763851613104
-0.48410606325000316	0.3356621752241099
-0.48404502809375316	0.32806167265764974
-0.48398399293750316	0.3202731954520137
-0.48392295778125316	0.31251593983962317
-0.48386192262500316	0.30486522628978996
-0.48380088746875316	0.2971651997038822
-0.48373985231250316	0.2892043958429648
-0.48367881715625316	0.28095926378757313
-0.48361778200000316	0.2726282135327578
-0.48355674684375316	0.2644126950274268
-0.48349571168750316	0.25629013163352743
-0.48343467653125316	0.24803751566873938
-0.48337364137500316	0.2394842443768955
-0.48331260621875316	0.23071084320124663
-0.48325157106250316	0.22196554937829313
-0.48319053590625316	0.21338827664675047
-0.48312950075000316	0.20485237069049378
-0.48306846559375316	0.19610591308749872
-0.48300743043750316	0.18705821864292338
-0.48294639528125316	0.17788946734829683
-0.48288536012500316	0.16885495212463095
-0.48282432496875316	0.15999975407686057
-0.48276328981250316	0.15110631807035743
-0.48270225465625316	0.1419393099105622
-0.48264121950000316	0.13251562399406067
-0.48258018434375316	0.12309330586361773
-0.48251914918750316	0.11388666162982528
-0.48245811403125316	0.10482583722308368
-0.48239707887500316	0.09563408515720472
-0.48233604371875316	0.08614064961509066
-0.48227500856250316	0.07647901705117853
-0.48221397340625316	0.06694454459714658
-0.48215293825000316	0.057666687179754074
-0.48209190309375316	0.04846275430085105
-0.48203086793750316	0.03904236835935956
-0.48196983278125316	0.029337695482005353
-0.48190879762500316	0.01958708077220691
-0.48184776246875316	0.010073790039432344
-0.48178672731250316	0.0008101996260432467
-0.48172569215625316	-0.00847710582785322
-0.48166465700000316	-0.01803988237355439
-0.48160362184375316	-0.027820537415203732
-0.48154258668750316	-0.037509232460556055
-0.48148155153125316	-0.04688609253149977
-0.48142051637500316	-0.056066683947839605
-0.48135948121875316	-0.06537317625097641
-0.48129844606250316	-0.074971276987389
-0.48123741090625316	-0.08467826322866046
-0.48117637575000316	-0.09416074958275553
-0.48111534059375316	-0.10330476655252516
-0.48105430543750316	-0.11234331891722768
-0.48099327028125316	-0.1215951078980448
-0.48093223512500316	-0.1311039627713844
-0.48087119996875316	-0.14058327125159895
-0.48081016481250316	-0.1497311392599608
-0.48074912965625316	-0.15856586416847535
-0.48068809450000316	-0.16740546391896696
-0.48062705934375316	-0.17651087493397788
-0.48056602418750316	-0.18578966506055578
-0.48050498903125316	-0.19489299702291354
-0.48044395387500316	-0.20360087484859546
-0.48038291871875316	-0.2120668252991374
-0.48032188356250316	-0.2206462589867118
-0.48026084840625316	-0.22949683292508957
-0.48019981325000316	-0.23839723148416797
-0.48013877809375316	-0.24698924767451927
-0.48007774293750316	-0.2551744463113365
-0.48001670778125316	-0.2632226535092992
-0.47995567262500316	-0.271469966974671
-0.47989463746875316	-0.27994099809959877
-0.47983360231250316	-0.2883163811769224
-0.47977256715625316	-0.2962845904877807
-0.47971153200000316	-0.30388735134815187
-0.47965049684375316	-0.3114717503969512
-0.47958946168750316	-0.3193008958954723
-0.47952842653125316	-0.32725750278891513
-0.47946739137500316	-0.33497116613215194
-0.47940635621875316	-0.3422278686660688
-0.47934532106250316	-0.34920617712880353
-0.47928428590625316	-0.35627651500135643
-0.47922325075000316	-0.3635861887061425
-0.47916221559375316	-0.3708924129978229
-0.47910118043750316	-0.37782971595248116
-0.47904014528125316	-0.38431432895666595
-0.47897911012500316	-0.39063516125756226
-0.47891807496875316	-0.39712987744424993
-0.47885703981250316	-0.4038069222391066
-0.47879600465625316	-0.4103341560517242
-0.47873496950000316	-0.4164063352600511
-0.47867393434375316	-0.4220822726109731
-0.47861289918750316	-0.4277165240674246
-0.47855186403125316	-0.43356224680094513
-0.47849082887500316	-0.4394882278453781
-0.47842979371875316	-0.4451243057072932
-0.47836875856250316	-0.4502713077388874
-0.47830772340625316	-0.4551192490475699
-0.47824668825000316	-0.46003270508838934
-0.47818565309375316	-0.4651435372336281
-0.47812461793750316	-0.47020420861360673
-0.47806358278125316	-0.47486304505556204
-0.47800254762500316	-0.4790531733842265
-0.47794151246875316	-0.48306294246356757
-0.47788047731250316	-0.4872120073646278
-0.47781944215625316	-0.4914952524974832
-0.47775840700000316	-0.4955897427544207
-0.47769737184375316	-0.49921397526209216
-0.47763633668750316	-0.5024379970314052
-0.47757530153125316	-0.5056010632369983
-0.47751426637500316	-0.5089319041906518
-0.47745323121875316	-0.5122953748989465
-0.47739219606250316	-0.5153448870766064
-0.47733116090625316	-0.5179074936942973
-0.47727012575000316	-0.5201723503776637
-0.47720909059375316	-0.5224758165582021
-0.47714805543750316	-0.5249262453432396
-0.47708702028125316	-0.5272862673475676
-0.47702598512500316	-0.529239479965841
-0.47696494996875316	-0.5307408998032735
-0.47690391481250316	-0.5320619503731908
-0.47684287965625316	-0.5334847394425647
-0.47678184450000316	-0.5349893460779958
-0.47672080934375316	-0.5362801771978767
-0.47665977418750316	-0.5371169052139153
-0.47659873903125316	-0.5375789228081713
-0.47653770387500316	-0.5379716510237398
-0.47647666871875316	-0.5384844739236195
-0.47641563356250316	-0.5389832068893208
-0.47635459840625316	-0.5391642779355438
-0.47629356325000316	-0.5388934746026842
-0.47623252809375316	-0.5383510680448379
-0.47617149293750316	-0.5378263062419569
-0.47611045778125316	-0.537395353601988
-0.47604942262500316	-0.5368414560912916
-0.47598838746875316	-0.5359010130230734
-0.47592735231250316	-0.5345565043405077
-0.47586631715625316	-0.5330508193163179
-0.47580528200000316	-0.531613003439542
-0.47574424684375316	-0.530205503852853
-0.47568321168750316	-0.52857237460031
-0.47562217653125316	-0.526528247278529
-0.47556114137500316	-0.5241624914680412
-0.47550010621875316	-0.5217342123491301
-0.47543907106250316	-0.5193816711258427
-0.47537803590625316	-0.5169729501563585
-0.47531700075000316	-0.5142600596903266
-0.47525596559375316	-0.5111576879856561
-0.47519493043750316	-0.5078342003792724
-0.47513389528125316	-0.504519029244719
-0.47507286012500316	-0.5012476300796834
-0.47501182496875316	-0.4978287245983286
-0.47495078981250316	-0.4940641961019711
-0.47488975465625316	-0.48997044082191676
-0.47482871950000316	-0.48575528339624474
-0.47476768434375316	-0.4815827679631697
-0.47470664918750316	-0.47739322755658203
-0.47464561403125316	-0.4729777896322191
-0.47458457887500316	-0.4682171236860305
-0.47452354371875316	-0.46321315515101275
-0.47446250856250316	-0.45817009196726466
-0.47440147340625316	-0.4531651163542852
-0.47434043825000316	-0.44806799978428974
-0.47427940309375316	-0.4426949748111398
-0.47421836793750316	-0.43701769647239447
-0.47415733278125316	-0.4311918169919621
-0.47409629762500316	-0.42537876174002454
-0.47403526246875316	-0.4195665661507926
-0.47397422731250316	-0.4135906656409029
-0.47391319215625316	-0.4073256637879274
-0.47385215700000316	-0.4008274726560742
-0.47379112184375316	-0.39426685289779567
-0.47373008668750316	-0.3877353347966228
-0.47366905153125316	-0.38114668025514775
-0.47360801637500316	-0.37434243032098596
-0.47354698121875316	-0.36727576092894987
-0.47348594606250316	-0.3600634773401533
-0.47342491090625316	-0.3528512002436509
-0.47336387575000316	-0.3456492538738624
-0.47330284059375316	-0.33832693640385547
-0.47324180543750316	-0.3307683487038219
-0.47318077028125316	-0.3230074363944118
-0.47311973512500316	-0.31518812743271163
-0.47305869996875316	-0.3073993900311797
-0.47299766481250316	-0.29957677228810436
-0.47293662965625316	-0.2915822948565973
-0.47287559450000316	-0.28336811406428086
-0.47281455934375316	-0.2750336478345694
-0.47275352418750316	-0.2667110342583765
-0.47269248903125316	-0.25841396294545754
-0.47263145387500316	-0.2500259802182514
-0.47257041871875316	-0.24144038706144144
-0.47250938356250316	-0.23268777659647275
-0.47244834840625316	-0.22390306914742267
-0.47238731325000316	-0.21517124059951181
-0.47232627809375316	-0.20643104137573462
-0.47226524293750316	-0.19754868741876877
-0.47220420778125316	-0.18847724750903896
-0.47214317262500316	-0.1793162904938814
-0.47208213746875316	-0.17020013364748013
-0.47202110231250316	-0.16114381793532778
-0.47196006715625316	-0.15202712965399637
-0.47189903200000316	-0.14273671374232108
-0.47183799684375316	-0.13330232519064317
-0.47177696168750316	-0.12386833391524399
-0.47171592653125316	-0.11453060662618406
-0.47165489137500316	-0.1052266077732922
-0.47159385621875316	-0.09580851910080816
-0.47153282106250316	-0.08621751918703488
-0.47147178590625316	-0.07655787301295522
-0.47141075075000316	-0.06698287840161611
-0.47134971559375316	-0.05752101529906143
-0.47128868043750316	-0.048042658374584206
-0.47122764528125316	-0.03841023389014447
-0.47116661012500316	-0.028642252525266084
-0.47110557496875316	-0.018899937867261317
-0.47104453981250316	-0.00930695693993956
-0.47098350465625316	0.00019204485080702547
-0.47092246950000316	0.009768601959339785
-0.47086143434375316	0.01951119503011237
-0.47080039918750316	0.0293168680253906
-0.47073936403125316	0.0390013284663544
-0.47067832887500316	0.04850606174541098
-0.47061729371875316	0.05796590722185105
-0.47055625856250316	0.0675556251017533
-0.47049522340625316	0.0772861057988871
-0.47043418825000316	0.08698332112894096
-0.47037315309375316	0.09647994114170862
