Time	Frequency
-0.5000138551250011	0.47287940210802026
-0.49995281996875107	0.4748329221286019
-0.49989178481250107	0.47670347622888914
-0.49983074965625107	0.4784332633172915
-0.49976971450000107	0.4799921079270049
-0.49970867934375107	0.4814331751969828
-0.49964764418750107	0.48277702852060916
-0.49958660903125107	0.4839744711209177
-0.49952557387500107	0.48501132959550225
-0.49946453871875107	0.4859304285330989
-0.49940350356250107	0.48673975741451797
-0.49934246840625107	0.48740206433073263
-0.49928143325000107	0.48791266847912634
-0.49922039809375107	0.4883020170405672
-0.49915936293750107	0.48857227119453583
-0.49909832778125107	0.48869898304655096
-0.49903729262500107	0.4886803505583206
-0.49897625746875107	0.48853471906641077
-0.49891522231250107	0.48826464432397676
-0.49885418715625107	0.48785708541626377
-0.49879315200000107	0.48730750013045676
-0.49873211684375107	0.48662467772706525
-0.49867108168750107	0.4858164459711222
-0.49861004653125107	0.48487758971843214
-0.49854901137500107	0.4837967723703775
-0.49848797621875107	0.48257755319550516
-0.49842694106250107	0.48123614697226336
-0.49836590590625107	0.47977032636928085
-0.49830487075000107	0.47815992229389814
-0.49824383559375107	0.4764085353546704
-0.49818280043750107	0.4745416648897356
-0.49812176528125107	0.4725545519027633
-0.49806073012500107	0.470418430345563
-0.49799969496875107	0.46814224640484275
-0.49793865981250107	0.465759304080605
-0.49787762465625107	0.46325753622357735
-0.49781658950000107	0.46060238063701237
-0.49775555434375107	0.4578124745381982
-0.49769451918750107	0.45492517827520473
-0.49763348403125107	0.4519172620682175
-0.49757244887500107	0.44875254125146913
-0.49751141371875107	0.44546215259678856
-0.49745037856250107	0.4420828489875703
-0.49738934340625107	0.43857864208425
-0.49732830825000107	0.4349170223630382
-0.49726727309375107	0.4311424138954954
-0.49720623793750107	0.4272853529453462
-0.49714520278125107	0.42329710670115456
-0.49708416762500107	0.41915444180500416
-0.49702313246875107	0.4149136909521452
-0.49696209731250107	0.41059365213676585
-0.49690106215625107	0.40613578122137395
-0.49684002700000107	0.40153135519136013
-0.49677899184375107	0.39684436949949964
-0.49671795668750107	0.3920770515228238
-0.49665692153125107	0.3871661638268359
-0.49659588637500107	0.3821216601860574
-0.49653485121875107	0.37700971188927673
-0.49647381606250107	0.37181312675872935
-0.49641278090625107	0.3664695953682177
-0.49635174575000107	0.36100884556819846
-0.49629071059375107	0.3554930361871735
-0.49622967543750107	0.349885884089677
-0.49616864028125107	0.3441332306896219
-0.49610760512500107	0.3382832573643589
-0.49604656996875107	0.33238613138533385
-0.49598553481250107	0.3263888162489595
-0.49592449965625107	0.3202529328301856
-0.49586346450000107	0.31404125057619164
-0.49580242934375107	0.30778544266930963
-0.49574139418750107	0.30142094573306355
-0.49568035903125107	0.2949303863010133
-0.49561932387500107	0.2883853810842772
-0.49555828871875107	0.28179520479398534
-0.49549725356250107	0.27509007316427614
-0.49543621840625107	0.2682763668586275
-0.49537518325000107	0.26142682399526734
-0.49531414809375107	0.2545261962483154
-0.49525311293750107	0.2475082871278363
-0.49519207778125107	0.24040424044386585
-0.49513104262500107	0.2332787823116411
-0.49507000746875107	0.22609331636659655
-0.49500897231250107	0.21879450511867898
-0.49494793715625107	0.21143486411144263
-0.49488690200000107	0.20406216937233687
-0.49482586684375107	0.19661923897811334
-0.49476483168750107	0.18907333593174083
-0.49470379653125107	0.18149257522177525
-0.49464276137500107	0.1739014315999956
-0.49458172621875107	0.16623116465171095
-0.49452069106250107	0.15847470557246768
-0.49445965590625107	0.15070692696506818
-0.49439862075000107	0.1429248765233487
-0.49433758559375107	0.1350583762401301
-0.49427655043750107	0.127129067798672
-0.49421551528125107	0.11920869229447938
-0.49415448012500107	0.11126609046011228
-0.49409344496875107	0.10323906364088445
-0.49403240981250107	0.09517590248214006
-0.49397137465625107	0.08713508291011275
-0.49391033950000107	0.07906083114635419
-0.49384930434375107	0.07090948672963159
-0.49378826918750107	0.06275145709690758
-0.49372723403125107	0.054622231178989664
-0.49366619887500107	0.04644772398497833
-0.49360516371875107	0.038211445847721674
-0.49354412856250107	0.02999775171245863
-0.49348309340625107	0.021811688517056532
-0.49342205825000107	0.01357020172227313
-0.49336102309375107	0.005289107990732479
-0.49329998793750107	-0.002944202041486056
-0.49323895278125107	-0.011157606706058065
-0.49317791762500107	-0.01943045842290957
-0.49311688246875107	-0.027713888014281027
-0.49305584731250107	-0.0359307619583272
-0.49299481215625107	-0.044141340304858105
-0.49293377700000107	-0.05240852875889628
-0.49287274184375107	-0.06065308004779372
-0.49281170668750107	-0.06882017350823814
-0.49275067153125107	-0.07699702286637829
-0.49268963637500107	-0.0852188642303516
-0.49262860121875107	-0.09338410325633507
-0.49256756606250107	-0.10147029131248528
-0.49250653090625107	-0.10958144194557361
-0.49244549575000107	-0.11771652495479414
-0.49238446059375107	-0.12576359606266266
-0.49232342543750107	-0.1337396151039969
-0.49226239028125107	-0.14175206275536723
-0.49220135512500107	-0.14975866803896082
-0.49214031996875107	-0.1576513980715392
-0.49207928481250107	-0.16548878717220128
-0.49201824965625107	-0.17336666433840062
-0.49195721450000107	-0.18120222455396479
-0.49189617934375107	-0.18890686460075717
-0.49183514418750107	-0.19657777398736512
-0.49177410903125107	-0.2042847061724901
-0.49171307387500107	-0.21191016793876813
-0.49165203871875107	-0.21939795717281727
-0.49159100356250107	-0.22687403972661205
-0.49152996840625107	-0.23436924808478699
-0.49146893325000107	-0.24174400014441197
-0.49140789809375107	-0.24898723358389163
-0.49134686293750107	-0.2562406335340716
-0.49128582778125107	-0.2634859926377918
-0.49122479262500107	-0.270575692035801
-0.49116375746875107	-0.27754988643598677
-0.49110272231250107	-0.28454949902281124
-0.49104168715625107	-0.29150439681860296
-0.49098065200000107	-0.29827711487488845
-0.49091961684375107	-0.30495939265409716
-0.49085858168750107	-0.3116731074446498
-0.49079754653125107	-0.3182988399561147
-0.49073651137500107	-0.3247272373406701
-0.49067547621875107	-0.33109577951181735
-0.49061444106250107	-0.33748992269272965
-0.49055340590625107	-0.34374989725207505
-0.49049237075000107	-0.3498106042453278
-0.49043133559375107	-0.35584350245733715
-0.49037030043750107	-0.36188357612856964
-0.49030926528125107	-0.3677450429765172
-0.49024823012500107	-0.3734183066877275
-0.49018719496875107	-0.37909196696685976
-0.49012615981250107	-0.3847421978141005
-0.49006512465625107	-0.3901761374011184
-0.49000408950000107	-0.3954455069607148
-0.48994305434375107	-0.4007363080610611
-0.48988201918750107	-0.4059630677684353
-0.48982098403125107	-0.4109456505367991
-0.48975994887500107	-0.41579607782182487
-0.48969891371875107	-0.4206778837541488
-0.48963787856250107	-0.4254489896457221
-0.48957684340625107	-0.42996149541030243
-0.48951580825000107	-0.4343792961318422
-0.48945477309375107	-0.43882529229813466
-0.48939373793750107	-0.44311196939072894
-0.48933270278125107	-0.44713969285743516
-0.48927166762500107	-0.4511105736362601
-0.48921063246875107	-0.4550935631115319
-0.48914959731250107	-0.45887192932872806
-0.48908856215625107	-0.46240476989677626
-0.48902752700000107	-0.4659140815390986
-0.48896649184375107	-0.4694073452380415
-0.48890545668750107	-0.4726582386773173
-0.48884442153125107	-0.475688925204273
-0.48878338637500107	-0.47872107823227855
-0.48872235121875107	-0.48169965935470516
-0.48866131606250107	-0.48440877094928353
-0.48860028090625107	-0.48693135632079304
-0.48853924575000107	-0.48946976395638647
-0.48847821059375107	-0.4919122602521536
-0.48841717543750107	-0.49407109577499775
-0.48835614028125107	-0.4960810057178336
-0.48829510512500107	-0.49810883134520906
-0.48823406996875107	-0.49999760672099375
-0.48817303481250107	-0.5016017474659866
-0.48811199965625107	-0.5030942710630035
-0.48805096450000107	-0.5045951392684092
-0.48798992934375107	-0.5059172891989676
-0.48792889418750107	-0.5069659305561619
-0.48786785903125107	-0.507936164102401
-0.48780682387500107	-0.508895234315756
-0.48774578871875107	-0.509642888742635
-0.48768475356250107	-0.510138230061364
-0.48762371840625107	-0.5105813256827028
-0.48756268325000107	-0.5109863309299113
-0.48750164809375107	-0.5111564034410936
-0.48744061293750107	-0.5111021415459346
-0.48737957778125107	-0.5110130383927224
-0.48731854262500107	-0.5108551612286467
-0.48725750746875107	-0.5104492379204142
-0.48719647231250107	-0.5098500979140972
-0.48713543715625107	-0.5092241728137895
-0.48707440200000107	-0.5084987035842262
-0.48701336684375107	-0.507522713693583
-0.48695233168750107	-0.5063844357365205
-0.48689129653125107	-0.5052183249037047
-0.48683026137500107	-0.5039245243410365
-0.48676922621875107	-0.5023871196367851
-0.48670819106250107	-0.5007155888907441
-0.48664715590625107	-0.49900813527211796
-0.48658612075000107	-0.4971502109290545
-0.48652508559375107	-0.4950628220066042
-0.48646405043750107	-0.49286423605546664
-0.48640301528125107	-0.4906165623704568
-0.48634198012500107	-0.48820270896714363
-0.48628094496875107	-0.48557887494096796
-0.48621990981250107	-0.48286083457421214
-0.48615887465625107	-0.4800776482418506
-0.48609783950000107	-0.4771194613610033
-0.48603680434375107	-0.473973062722945
-0.48597576918750107	-0.4707434757206702
-0.48591473403125107	-0.4674331677181751
-0.48585369887500107	-0.46394682819184313
-0.48579266371875107	-0.46029398428248836
-0.48573162856250107	-0.4565625094015075
-0.48567059340625107	-0.45273647676227996
-0.48560955825000107	-0.4487397332138559
-0.48554852309375107	-0.4445964093954817
-0.48548748793750107	-0.44037478345718795
-0.48542645278125107	-0.4360489113948516
-0.48536541762500107	-0.431562881680612
-0.48530438246875107	-0.42694698788602703
-0.48524334731250107	-0.42224953307620616
-0.48518231215625107	-0.41744214949329167
-0.48512127700000107	-0.41248811294197707
-0.48506024184375107	-0.4074172882352527
-0.48499920668750107	-0.40226120241960356
-0.48493817153125107	-0.3969952131374303
-0.48487713637500107	-0.3915970191131402
-0.48481610121875107	-0.386090370067322
-0.48475506606250107	-0.38049538144279016
-0.48469403090625107	-0.3747959051900812
-0.48463299575000107	-0.36897849565624846
-0.48457196059375107	-0.36305705400596766
-0.48451092543750107	-0.35704574922171645
-0.48444989028125107	-0.3509391131335287
-0.48438885512500107	-0.3447271005798316
-0.48432781996875107	-0.33841353926095497
-0.48426678481250107	-0.3320124609445707
-0.48420574965625107	-0.32552799301855345
-0.48414471450000107	-0.3189475980205939
-0.48408367934375107	-0.3122666501234659
-0.48402264418750107	-0.30550423488751605
-0.48396160903125107	-0.29867152188009594
-0.48390057387500107	-0.2917490702104533
-0.48383953871875107	-0.28472771073835623
-0.48377850356250107	-0.27763534595763234
-0.48371746840625107	-0.2704854447832531
-0.48365643325000107	-0.2632489733755669
-0.48359539809375107	-0.2559170612764271
-0.48353436293750107	-0.24852749303668242
-0.48347332778125107	-0.2410907983100717
-0.48341229262500107	-0.23356850933227524
-0.48335125746875107	-0.22595790202598187
-0.48329022231250107	-0.21830589374106515
-0.48322918715625107	-0.2106145117815268
-0.48316815200000107	-0.202837391338182
-0.48310711684375107	-0.19498242675590932
-0.48304608168750107	-0.18710274665886348
-0.48298504653125107	-0.1791880803600197
-0.48292401137500107	-0.17118818976073663
-0.48286297621875107	-0.1631250629684953
-0.48280194106250107	-0.15505324691235406
-0.48274090590625107	-0.1469470523391286
-0.48267987075000107	-0.13875793407485457
-0.48261883559375107	-0.13052438201587493
-0.48255780043750107	-0.12229632566888912
-0.48249676528125107	-0.1140316528899026
-0.48243573012500107	-0.10568957995663308
-0.48237469496875107	-0.0973242656741798
-0.48231365981250107	-0.08897483519022543
-0.48225262465625107	-0.08058498083902893
-0.48219158950000107	-0.07212767323230232
-0.48213055434375107	-0.06366933965594283
-0.48206951918750107	-0.055232818042265215
-0.48200848403125107	-0.046752186256677
-0.48194744887500107	-0.038219120020065625
-0.48188641371875107	-0.029706659014286232
-0.48182537856250107	-0.0212172274549346
-0.48176434340625107	-0.012681926467828588
-0.48170330825000107	-0.004114070960261873
-0.48164227309375107	0.004414157558577425
-0.48158123793750107	0.012922574904245449
-0.48152020278125107	0.021475441996605213
-0.48145916762500107	0.030037581884766726
-0.48139813246875107	0.03854530143239126
-0.48133709731250107	0.04703915180913457
-0.48127606215625107	0.055570969341063994
-0.48121502700000107	0.06408612400949848
-0.48115399184375107	0.0725368593547756
-0.48109295668750107	0.08098123155980673
-0.48103192153125107	0.08945196311196711
-0.48097088637500107	0.09788002332270439
-0.48090985121875107	0.1062398478048168
-0.48084881606250107	0.11460015480441636
-0.48078778090625107	0.12296919585003958
-0.48072674575000107	0.13127168652220148
-0.48066571059375107	0.1395079995595832
-0.48060467543750107	0.1477482011691695
-0.48054364028125107	0.1559738849866402
-0.48048260512500107	0.16411349221552143
-0.48042156996875107	0.17219392545585147
-0.48036053481250107	0.18027680765491436
-0.48029949965625107	0.18831871887492826
-0.48023846450000107	0.19626134913388912
-0.48017742934375107	0.20415459325803256
-0.48011639418750107	0.21204249971507344
-0.48005535903125107	0.21986124524319475
-0.47999432387500107	0.22757408462606482
-0.47993328871875107	0.2352481418361551
-0.47987225356250107	0.242902669121601
-0.47981121840625107	0.2504610794585338
-0.47975018325000107	0.25791414573632787
-0.47968914809375107	0.2653366707122592
-0.47962811293750107	0.27271875183489724
-0.47956707778125107	0.27998187294624804
-0.47950604262500107	0.2871473263661919
-0.47944500746875107	0.2942865958407622
-0.47938397231250107	0.30135907600452283
-0.47932293715625107	0.30829502182070195
-0.47926190200000107	0.3151454417421912
-0.47920086684375107	0.32196736806520115
-0.47913983168750107	0.3286928585284849
-0.47907879653125107	0.3352727079468943
-0.47901776137500107	0.3417826241363739
-0.47895672621875107	0.3482544804737649
-0.47889569106250107	0.35459993709061766
-0.47883465590625107	0.3607990113621691
-0.47877362075000107	0.36694239228552344
-0.47871258559375107	0.37302929845387833
-0.47865155043750107	0.37896275638161425
-0.47859051528125107	0.3847585953491307
-0.47852948012500107	0.39051021802165076
-0.47846844496875107	0.39617970934672425
-0.47840740981250107	0.40167401322202745
-0.47834637465625107	0.4070463564260282
-0.47828533950000107	0.4123795541278041
-0.47822430434375107	0.41759984398472594
-0.47816326918750107	0.4226321668540532
-0.47810223403125107	0.4275634001919375
-0.47804119887500107	0.4324517750960123
-0.47798016371875107	0.43719362437169146
-0.47791912856250107	0.4417447967302474
-0.47785809340625107	0.44621752043279916
-0.47779705825000107	0.4506338978742779
-0.47773602309375107	0.45487114453024835
-0.47767498793750107	0.45892624714072844
-0.47761395278125107	0.4629240456489177
-0.47755291762500107	0.4668423762099048
-0.47749188246875107	0.4705537197347425
-0.47743084731250107	0.4741014557532711
-0.47736981215625107	0.4776070801102273
-0.47730877700000107	0.48100181601557196
-0.47724774184375107	0.48417037499086985
-0.47718670668750107	0.4872021764537042
-0.47712567153125107	0.4901982111873963
-0.47706463637500107	0.4930462440476711
-0.47700360121875107	0.4956601709603147
-0.47694256606250107	0.4981694105449221
-0.47688153090625107	0.5006382310602102
-0.47682049575000107	0.5029199605197219
-0.47675946059375107	0.5049723731653616
-0.47669842543750107	0.5069528644897542
-0.47663739028125107	0.5088764069552358
-0.47657635512500107	0.5105767082679745
-0.47651531996875107	0.5120656990241726
-0.47645428481250107	0.5135117362123149
-0.47639324965625107	0.5148727577262934
-0.47633221450000107	0.5159813396612001
-0.47627117934375107	0.5169082608317318
-0.47621014418750107	0.5178134427229654
-0.47614910903125107	0.5185965403575333
-0.47608807387500107	0.5191088867859863
-0.47602703871875107	0.5194779227088123
-0.47596600356250107	0.5198353725525401
-0.47590496840625107	0.5200282729608058
-0.47584393325000107	0.5199457033200771
-0.47578289809375107	0.5197625339248084
-0.47572186293750107	0.5195645736068922
-0.47566082778125107	0.5191586905524304
-0.47559979262500107	0.5184875231752032
-0.47553875746875107	0.5177582975350496
-0.47547772231250107	0.5169978029688312
-0.47541668715625107	0.5159901967415854
-0.47535565200000107	0.5147416457271247
-0.47529461684375107	0.5134721058873639
-0.47523358168750107	0.5121425458468366
-0.47517254653125107	0.510535412128626
-0.47511151137500107	0.5087238182030994
-0.47505047621875107	0.5069191072617629
-0.47498944106250107	0.5050168317273643
-0.47492840590625107	0.5028188359091292
-0.47486737075000107	0.500460831693801
-0.47480633559375107	0.4981249309895447
-0.47474530043750107	0.4956491697190573
-0.47468426528125107	0.49287423827070714
-0.47462323012500107	0.48998740347417546
-0.47456219496875107	0.4871243095348643
-0.47450115981250107	0.4840794847381734
-0.47444012465625107	0.48074695548985424
-0.47437908950000107	0.47734891855719297
-0.47431805434375107	0.4739626738153119
-0.47425701918750107	0.47035760278081995
-0.47419598403125107	0.4664900434599848
-0.47413494887500107	0.46259788161610105
-0.47407391371875107	0.45869479733016894
-0.47401287856250107	0.45454475734325944
-0.47395184340625107	0.45016780854471455
-0.47389080825000107	0.445797585332097
-0.47382977309375107	0.44138595796411473
-0.47376873793750107	0.43671083960915413
-0.47370770278125107	0.43185128607180623
-0.47364666762500107	0.42701873517643973
-0.47358563246875107	0.4221110323884284
-0.47352459731250107	0.41693626049057825
-0.47346356215625107	0.4116217641749019
-0.47340252700000107	0.4063421943487536
-0.47334149184375107	0.4009540965612643
-0.47328045668750107	0.39530826760252746
-0.47321942153125107	0.3895664425298949
-0.47315838637500107	0.3838569209595142
-0.47309735121875107	0.37800982911916675
-0.47303631606250107	0.3719248765711782
-0.47297528090625107	0.36578245799228626
-0.47291424575000107	0.3596609746697959
-0.47285321059375107	0.35337985781249565
-0.47279217543750107	0.3468888899937623
-0.47273114028125107	0.3403719531319924
-0.47267010512500107	0.3338592233153777
-0.47260906996875107	0.32717433107701066
-0.47254803481250107	0.3203128499625475
-0.47248699965625107	0.31344762195517745
-0.47242596450000107	0.306566568518291
-0.47236492934375107	0.2995105640346638
-0.47230389418750107	0.2923135707056381
-0.47224285903125107	0.28512666656736746
-0.47218182387500107	0.27790436348878417
-0.47212078871875107	0.27051298850089145
-0.47205975356250107	0.26301463222263766
-0.47199871840625107	0.2555324750193658
-0.47193768325000107	0.24799894033750405
-0.47187664809375107	0.24031058913088554
-0.47181561293750107	0.23254634865406337
-0.47175457778125107	0.22479811309523662
-0.47169354262500107	0.2169865896349043
-0.47163250746875107	0.20903954593639743
-0.47157147231250107	0.20104259138259578
-0.47151043715625107	0.19305777938107288
-0.47144940200000107	0.18500457889495403
-0.47138836684375107	0.17683901808218086
-0.47132733168750107	0.1686434253511595
-0.47126629653125107	0.16045404338393895
-0.47120526137500107	0.1521974152636265
-0.47114422621875107	0.1438526649349562
-0.47108319106250107	0.13549228181841633
-0.47102215590625107	0.12713268359469465
-0.47096112075000107	0.1187128228926573
-0.47090008559375107	0.11022836441371266
-0.47083905043750107	0.10173751688403328
-0.47077801528125107	0.09324366012501423
-0.47071698012500107	0.08470104431692008
-0.47065594496875107	0.07611480240306523
-0.47059490981250107	0.06752787603705518
-0.47053387465625107	0.05893827282378974
-0.47047283950000107	0.050315206551898695
-0.47041180434375107	0.04166543406021181
-0.47035076918750107	0.03301800161715313
-0.47028973403125107	0.024372560850096075
