Time	Frequency
-0.500036784656249	0.45371458568296724
-0.499975749499999	0.4569633717753385
-0.499914714343749	0.46007981852937524
-0.499853679187499	0.4630720171738136
-0.499792644031249	0.4659569921418966
-0.499731608874999	0.4687167991328035
-0.499670573718749	0.471341868546502
-0.499609538562499	0.4738521253866327
-0.499548503406249	0.476245263974178
-0.499487468249999	0.47850180587044744
-0.499426433093749	0.48063183618508165
-0.499365397937499	0.4826472343982456
-0.499304362781249	0.48453109095530106
-0.499243327624999	0.4862791529437986
-0.499182292468749	0.4879081748663233
-0.499121257312499	0.48941261888441695
-0.499060222156249	0.4907784195480402
-0.498999186999999	0.4920168063990305
-0.498938151843749	0.4931342404389675
-0.498877116687499	0.4941160013947519
-0.498816081531249	0.4949628771835656
-0.498755046374999	0.49568750230765557
-0.498694011218749	0.4962817630660043
-0.498632976062499	0.4967375479727359
-0.498571940906249	0.4970664464371293
-0.498510905749999	0.4972694240822171
-0.498449870593749	0.49733459770559
-0.498388835437499	0.4972674051783577
-0.498327800281249	0.4970760599661694
-0.498266765124999	0.4967506568773844
-0.498205729968749	0.49628893107686833
-0.498144694812499	0.4957019001581482
-0.498083659656249	0.49498559202274683
-0.498022624499999	0.4941318349721305
-0.497961589343749	0.4931497927487723
-0.497900554187499	0.4920426759427602
-0.497839519031249	0.49079992057014854
-0.497778483874999	0.4894251526029499
-0.497717448718749	0.4879277116358726
-0.497656413562499	0.4862992912235769
-0.497595378406249	0.4845361856704008
-0.497534343249999	0.48265014307522236
-0.497473308093749	0.4806392115502352
-0.497412272937499	0.47849352523680333
-0.497351237781249	0.4762221636869766
-0.497290202624999	0.47383163083956115
-0.497229167468749	0.4713101550817147
-0.497168132312499	0.46865914068290543
-0.497107097156249	0.4658917786471024
-0.497046061999999	0.463000914802705
-0.496985026843749	0.45997858194643093
-0.496923991687499	0.4568386543014618
-0.496862956531249	0.4535836727291182
-0.496801921374999	0.4501996986568041
-0.496740886218749	0.44669408394655186
-0.496679851062499	0.4430797979234485
-0.496618815906249	0.4393442369522023
-0.496557780749999	0.4354829433569495
-0.496496745593749	0.43151405189813596
-0.496435710437499	0.42743489892407377
-0.496374675281249	0.42323042659900656
-0.496313640124999	0.4189144868804235
-0.496252604968749	0.41449857658668093
-0.496191569812499	0.40996470806250257
-0.496130534656249	0.40531295827788283
-0.496069499499999	0.40056516707147666
-0.496008464343749	0.39571300439159296
-0.495947429187499	0.3907413390396016
-0.495886394031249	0.3856702470908153
-0.495825358874999	0.38050820017144277
-0.495764323718749	0.3752327723319731
-0.495703288562499	0.36985025810133304
-0.495642253406249	0.3643846511485477
-0.495581218249999	0.358820476717056
-0.495520183093749	0.3531441194148805
-0.495459147937499	0.3473826134311622
-0.495398112781249	0.34154021952850616
-0.495337077624999	0.3355902411115895
-0.495276042468749	0.32954576559446164
-0.495215007312499	0.32343211650125275
-0.495153972156249	0.3172266389540018
-0.495092936999999	0.31091835925528355
-0.495031901843749	0.3045409386473107
-0.494970866687499	0.2980931176235331
-0.494909831531249	0.29154433225351994
-0.494848796374999	0.2849154567367054
-0.494787761218749	0.27823230919164516
-0.494726726062499	0.27146463976410845
-0.494665690906249	0.26460538397567407
-0.494604655749999	0.2576942775138002
-0.494543620593749	0.2507231861880083
-0.494482585437499	0.2436593217839764
-0.494421550281249	0.23653243652752698
-0.494360515124999	0.22936661832275348
-0.494299479968749	0.22212334275374435
-0.494238444812499	0.21480128886487154
-0.494177409656249	0.2074462104167807
-0.494116374499999	0.20004187418653782
-0.494055339343749	0.19255367170408222
-0.493994304187499	0.1850205958890229
-0.493933269031249	0.17746446846086877
-0.493872233874999	0.16983893363936398
-0.493811198718749	0.16214903967948832
-0.493750163562499	0.15444555735139648
-0.493689128406249	0.14670350217782865
-0.493628093249999	0.1388877989374243
-0.493567058093749	0.13104696245695277
-0.493506022937499	0.12319870874019667
-0.493444987781249	0.1152890000398948
-0.493383952624999	0.10733091918955175
-0.493322917468749	0.09937949103462532
-0.493261882312499	0.09140000485010753
-0.493200847156249	0.0833577947952593
-0.493139811999999	0.07531104319466285
-0.493078776843749	0.06727285568808634
-0.493017741687499	0.05918183988044341
-0.492956706531249	0.051059266084866564
-0.492895671374999	0.04296375751377878
-0.492834636218749	0.034850642949865104
-0.492773601062499	0.02668645099493201
-0.492712565906249	0.018538908146774023
-0.492651530749999	0.010415428609249053
-0.492590495593749	0.0022479416390300986
-0.492529460437499	-0.005933059259708729
-0.492468425281249	-0.014066398290630161
-0.492407390124999	-0.02220740480487758
-0.492346354968749	-0.030387529077685136
-0.492285319812499	-0.03852930522738569
-0.492224284656249	-0.046631340055776946
-0.492163249499999	-0.0547683827629418
-0.492102214343749	-0.06290125092272406
-0.492041179187499	-0.07096634420233021
-0.491980144031249	-0.07902838356969552
-0.491919108874999	-0.08711679817084397
-0.491858073718749	-0.09514610736829457
-0.491797038562499	-0.10312089288390414
-0.491736003406249	-0.11112122587410377
-0.491674968249999	-0.1190995365422808
-0.491613933093749	-0.1269904592714099
-0.491552897937499	-0.13486746722849818
-0.491491862781249	-0.14275802407751964
-0.491430827624999	-0.15056973152651998
-0.491369792468749	-0.15831236436143353
-0.491308757312499	-0.1660699227842743
-0.491247722156249	-0.17378832662320579
-0.491186686999999	-0.18140198588151388
-0.491125651843749	-0.1889908543960827
-0.491064616687499	-0.19657985729801916
-0.491003581531249	-0.20407148924608243
-0.490942546374999	-0.21147963947660683
-0.490881511218749	-0.21889144889202702
-0.490820476062499	-0.2262487448448561
-0.490759440906249	-0.23348539902920706
-0.490698405749999	-0.24068479682580196
-0.490637370593749	-0.24787082841200772
-0.490576335437499	-0.25494449436337
-0.490515300281249	-0.2619215549122211
-0.490454265124999	-0.2688888885859819
-0.490393229968749	-0.2757872577348768
-0.490332194812499	-0.28255230790605707
-0.490271159656249	-0.28926707323493206
-0.490210124499999	-0.29595373245627066
-0.490149089343749	-0.30251587812102254
-0.490088054187499	-0.30897019172589113
-0.490027019031249	-0.3153998785402589
-0.489965983874999	-0.32174723638363256
-0.489904948718749	-0.3279519803540123
-0.489843913562499	-0.3340931987349306
-0.489782878406249	-0.34019059945781804
-0.489721843249999	-0.3461543692683737
-0.489660808093749	-0.3520012960975706
-0.489599772937499	-0.3578070471604548
-0.489538737781249	-0.363517728354864
-0.489477702624999	-0.3690803645443127
-0.489416667468749	-0.37456680383898733
-0.489355632312499	-0.37999248405734315
-0.489294597156249	-0.38527809381143757
-0.489233561999999	-0.390440622574195
-0.489172526843749	-0.39554455891995927
-0.489111491687499	-0.40054139295157476
-0.489050456531249	-0.4053883616384311
-0.488989421374999	-0.41014746199985136
-0.488928386218749	-0.4148279110094943
-0.488867351062499	-0.4193637930455221
-0.488806315906249	-0.42377321363105636
-0.488745280749999	-0.42810698136885617
-0.488684245593749	-0.43232222121727487
-0.488623210437499	-0.4363882739486262
-0.488562175281249	-0.4403562834319349
-0.488501140124999	-0.44422821103284277
-0.488440104968749	-0.4479530360813283
-0.488379069812499	-0.45155048835727774
-0.488318034656249	-0.4550560365001711
-0.488256999499999	-0.4584320104203674
-0.488195964343749	-0.4616613650891419
-0.488134929187499	-0.46478494714760815
-0.488073894031249	-0.4677963379104084
-0.488012858874999	-0.4706588646687633
-0.487951823718749	-0.47339476898015814
-0.487890788562499	-0.4760248352890006
-0.487829753406249	-0.4785158622443911
-0.487768718249999	-0.4808637657562288
-0.487707683093749	-0.4831000352681413
-0.487646647937499	-0.4852103461644759
-0.487585612781249	-0.4871709712592436
-0.487524577624999	-0.48900664674465066
-0.487463542468749	-0.4907253153413764
-0.487402507312499	-0.4922976145582964
-0.487341472156249	-0.4937305533609169
-0.487280436999999	-0.49504771385002044
-0.487219401843749	-0.49622836268732146
-0.487158366687499	-0.49725960892587173
-0.487097331531249	-0.49816801670370686
-0.487036296374999	-0.49895121259867586
-0.486975261218749	-0.49958328985560047
-0.486914226062499	-0.5000798177851423
-0.486853190906249	-0.5004579534463847
-0.486792155749999	-0.5006926490479772
-0.486731120593749	-0.5007794382438374
-0.486670085437499	-0.5007455116113617
-0.486609050281249	-0.5005811872091894
-0.486548015124999	-0.5002640391304611
-0.486486979968749	-0.49981516295423084
-0.486425944812499	-0.49924656529966843
-0.486364909656249	-0.4985313954012729
-0.486303874499999	-0.4976712666301643
-0.486242839343749	-0.49669244374689264
-0.486181804187499	-0.4955808840811141
-0.486120769031249	-0.4943180548335348
-0.486059733874999	-0.4929275656914591
-0.485998698718749	-0.4914169398099462
-0.485937663562499	-0.48976014127183254
-0.485876628406249	-0.4879633142405254
-0.485815593249999	-0.4860499029270691
-0.485754558093749	-0.4840036331384196
-0.485693522937499	-0.481810789847385
-0.485632487781249	-0.47949518142033076
-0.485571452624999	-0.47706001513586194
-0.485510417468749	-0.47448210859043394
-0.485449382312499	-0.4717710022530776
-0.485388347156249	-0.4689460376819806
-0.485327311999999	-0.4659904152814837
-0.485266276843749	-0.46289538698942634
-0.485205241687499	-0.459683037471518
-0.485144206531249	-0.4563531014068743
-0.485083171374999	-0.4528869852625834
-0.485022136218749	-0.44929615412542345
-0.484961101062499	-0.44559462530195776
-0.484900065906249	-0.4417668274722705
-0.484839030749999	-0.4378095297257671
-0.484777995593749	-0.4337414705268839
-0.484716960437499	-0.4295590050150964
-0.484655925281249	-0.42524903629488575
-0.484594890124999	-0.4208241771728312
-0.484533854968749	-0.4162929849707329
-0.484472819812499	-0.4116422502781544
-0.484411784656249	-0.406873859276272
-0.484350749499999	-0.4020020898012911
-0.484289714343749	-0.3970205601285662
-0.484228679187499	-0.3919225083793181
-0.484167644031249	-0.3867210201523497
-0.484106608874999	-0.3814187590353042
-0.484045573718749	-0.37600520862908304
-0.483984538562499	-0.3704871076785596
-0.483923503406249	-0.36487440754850664
-0.483862468249999	-0.35915880535179945
-0.483801433093749	-0.35333917442415863
-0.483740397937499	-0.3474279884332398
-0.483679362781249	-0.34142310750114063
-0.483618327624999	-0.33531777382040096
-0.483557292468749	-0.3291222526628952
-0.483496257312499	-0.32284116883175484
-0.483435222156249	-0.3164655891489598
-0.483374186999999	-0.31000064418017653
-0.483313151843749	-0.30345708508892355
-0.483252116687499	-0.296827947159977
-0.483191081531249	-0.2901107200963366
-0.483130046374999	-0.28331842717072997
-0.483069011218749	-0.2764507290621724
-0.483007976062499	-0.2694993424702513
-0.482946940906249	-0.26247445346947995
-0.482885905749999	-0.2553835578714762
-0.482824870593749	-0.24821627636651922
-0.482763835437499	-0.24097563218883714
-0.482702800281249	-0.23367616999311513
-0.482641765124999	-0.2263118684919486
-0.482580729968749	-0.21887599865840257
-0.482519694812499	-0.2113835466479205
-0.482458659656249	-0.20383813066078793
-0.482397624499999	-0.19622736563897397
-0.482336589343749	-0.18855990244511336
-0.482275554187499	-0.18084924178883288
-0.482214519031249	-0.17308390059519066
-0.482153483874999	-0.1652613561960047
-0.482092448718749	-0.15740093045033648
-0.482031413562499	-0.14950054910075247
-0.481970378406249	-0.1415463491653356
-0.481909343249999	-0.13355340995096127
-0.481848308093749	-0.12553376151260878
-0.481787272937499	-0.11747032752675073
-0.481726237781249	-0.10936494745971134
-0.481665202624999	-0.10124052368621497
-0.481604167468749	-0.09308895530738001
-0.481543132312499	-0.08489630821293645
-0.481482097156249	-0.07668425632872265
-0.481421061999999	-0.06846162410700618
-0.481360026843749	-0.06020638073751694
-0.481298991687499	-0.05192637017604262
-0.481237956531249	-0.04364662860798004
-0.481176921374999	-0.035351836193940014
-0.481115886218749	-0.027029367214307858
-0.481054851062499	-0.018707551280355023
-0.480993815906249	-0.010390738173966858
-0.480932780749999	-0.0020527834136885898
-0.480871745593749	0.006291384210307672
-0.480810710437499	0.014615976450277925
-0.480749675281249	0.022944181614226598
-0.480688640124999	0.031285699754366604
-0.480627604968749	0.03960551871932835
-0.480566569812499	0.04790536554382784
-0.480505534656249	0.05621525780353997
-0.480444499499999	0.06451225748721537
-0.480383464343749	0.07277051651074509
-0.480322429187499	0.08102143682876664
-0.480261394031249	0.08927074935050877
-0.480200358874999	0.09747705533035113
-0.480139323718749	0.1056493343121319
-0.480078288562499	0.11382040347219632
-0.480017253406249	0.12195855661738993
-0.479956218249999	0.13003976759761973
-0.479895183093749	0.13810380441937198
-0.479834147937499	0.1461504780553229
-0.479773112781249	0.15413252104510836
-0.479712077624999	0.16206764721131006
-0.479651042468749	0.16999072951313252
-0.479590007312499	0.17786073238076103
-0.479528972156249	0.1856563426771892
-0.479467936999999	0.19342547348674324
-0.479406901843749	0.20116119652975284
-0.479345866687499	0.2088114276622193
-0.479284831531249	0.21640349446738494
-0.479223796374999	0.22397282520890519
-0.479162761218749	0.23146831753948097
-0.479101726062499	0.23887285347410228
-0.479040690906249	0.24624265980379703
-0.478979655749999	0.25356298661190957
-0.478918620593749	0.2607776642745027
-0.478857585437499	0.267924394489143
-0.478796550281249	0.275038145526637
-0.478735515124999	0.2820576684752824
-0.478674479968749	0.2889712120563284
-0.478613444812499	0.2958430427625309
-0.478552409656249	0.30264950909940824
-0.478491374499999	0.30933066862526776
-0.478430339343749	0.31593513714868204
-0.478369304187499	0.32249686405784067
-0.478308269031249	0.3289446764899848
-0.478247233874999	0.33527321665329435
-0.478186198718749	0.34155422136071745
-0.478125163562499	0.3477544093941545
-0.478064128406249	0.3538110860812777
-0.478003093249999	0.35978410833557145
-0.477942058093749	0.3657053704370731
-0.477881022937499	0.37149374452486866
-0.477819987781249	0.37715072217643686
-0.477758952624999	0.38275524643235803
-0.477697917468749	0.3882646704891195
-0.477636882312499	0.39361396512871544
-0.477575847156249	0.39887358060237393
-0.477514811999999	0.4040734535298957
-0.477453776843749	0.40912361973110667
-0.477392741687499	0.41403185288933836
-0.477331706531249	0.418883177996352
-0.477270671374999	0.42362652894113767
-0.477209636218749	0.4281952203777353
-0.477148601062499	0.4326690576138246
-0.477087565906249	0.437075962729604
-0.477026530749999	0.4413185294992282
-0.476965495593749	0.4454102393898681
-0.476904460437499	0.4494410694121502
-0.476843425281249	0.4533529994912931
-0.476782390124999	0.45707836191887474
-0.476721354968749	0.460704353821918
-0.476660319812499	0.46425722018289134
-0.476599284656249	0.46763404551604454
-0.476538249499999	0.47085237621534626
-0.476477214343749	0.47400580608595905
-0.476416179187499	0.47703216523658715
-0.476355144031249	0.4798631071955845
-0.476294108874999	0.4825897711532753
-0.476233073718749	0.48523778277135493
-0.476172038562499	0.48770233227954707
-0.476111003406249	0.49000282601136935
-0.476049968249999	0.49223351872495247
-0.475988933093749	0.49433127206170774
-0.475927897937499	0.49622879562761035
-0.475866862781249	0.4980173081645152
-0.475805827624999	0.4997216250515812
-0.475744792468749	0.5012391419309286
-0.475683757312499	0.5025896024381932
-0.475622722156249	0.5038642577275888
-0.475561686999999	0.5050022912492309
-0.475500651843749	0.5059401046969842
-0.475439616687499	0.5067644701559046
-0.475378581531249	0.5074983995760177
-0.475317546374999	0.508046522910234
-0.475256511218749	0.508428058177374
-0.475195476062499	0.5087265255800354
-0.475134440906249	0.508885983398462
-0.475073405749999	0.5088502371351394
-0.475012370593749	0.5086978485537226
-0.474951335437499	0.5084479237715015
-0.474890300281249	0.5080166758238828
-0.474829265124999	0.5074230699406731
-0.474768229968749	0.5067387478610063
-0.474707194812499	0.5059140969918202
-0.474646159656249	0.5049036445523086
-0.474585124499999	0.5037750305350946
-0.474524089343749	0.5025413363024529
-0.474463054187499	0.5011336306160212
-0.474402019031249	0.4995714439541902
-0.474340983874999	0.49791136776573464
-0.474279948718749	0.4961103963701981
-0.474218913562499	0.4941364030562621
-0.474157878406249	0.49204516721023334
-0.474096843249999	0.4898418772957681
-0.474035808093749	0.48747371264543893
-0.473974772937499	0.48496196443696277
-0.473913737781249	0.48234680535643376
-0.473852702624999	0.4795910244832235
-0.473791667468749	0.4766770170991837
-0.473730632312499	0.4736492574933131
-0.473669597156249	0.47050418265682337
-0.473608561999999	0.4672046739831991
-0.473547526843749	0.46377451175826223
-0.473486491687499	0.46023789575763
-0.473425456531249	0.45656252421382676
-0.473364421374999	0.4527447884523684
-0.473303386218749	0.4488190098929005
-0.473242351062499	0.4447731056783438
-0.473181315906249	0.44058403425902287
-0.473120280749999	0.43627834054326614
-0.473059245593749	0.43186624956905195
-0.472998210437499	0.4273194181983286
-0.472937175281249	0.42264628265392357
-0.472876140124999	0.41787282175782864
-0.472815104968749	0.4129797875242462
-0.472754069812499	0.40795550813408654
-0.472693034656249	0.40282880121741205
-0.472631999499999	0.39759895425429737
-0.472570964343749	0.39224094412601535
-0.472509929187499	0.3867723846103557
-0.472448894031249	0.3812126485870662
-0.472387858874999	0.37553768485804934
-0.472326823718749	0.36974455133923484
-0.472265788562499	0.3638627343903089
-0.472204753406249	0.35788369222212085
-0.472143718249999	0.35178602142822096
-0.472082683093749	0.3455933502250046
-0.472021647937499	0.3393196577529211
-0.471960612781249	0.33293854765121006
-0.471899577624999	0.3264531349711435
-0.471838542468749	0.31989221081948027
-0.471777507312499	0.3132429128609769
-0.471716472156249	0.30648761323359497
-0.471655436999999	0.2996522410310874
-0.471594401843749	0.2927461533116362
-0.471533366687499	0.2857437592500763
-0.471472331531249	0.278652669051696
-0.471411296374999	0.2714988536378971
-0.471350261218749	0.26426717821271584
-0.471289226062499	0.2569446354557645
-0.471228190906249	0.2495571751915739
-0.471167155749999	0.24210974031249988
-0.471106120593749	0.234579580168785
-0.471045085437499	0.226977710283576
-0.470984050281249	0.21932588301779044
-0.470923015124999	0.21160828934792164
-0.470861979968749	0.20381671164528808
-0.470800944812499	0.19597510761778955
-0.470739909656249	0.18808489520179228
-0.470678874499999	0.18012806384759728
-0.470617839343749	0.1721173429954195
-0.470556804187499	0.1640687430379708
-0.470495769031249	0.15596769490638596
-0.470434733874999	0.14781160018933004
-0.470373698718749	0.1396208303166638
-0.470312663562499	0.13139329145601997
-0.470251628406249	0.12311648218561075
-0.470190593249999	0.11480406998089529
-0.470129558093749	0.10646640366827172
-0.470068522937499	0.09809117172577154
-0.470007487781249	0.08968062972939324
-0.469946452624999	0.08125042691163435
-0.469885417468749	0.07279571935095223
-0.469824382312499	0.06431035417389593
-0.469763347156249	0.05580813501955314
-0.469702311999999	0.047293135825866674
-0.469641276843749	0.03875592385654026
-0.469580241687499	0.030203773964738414
-0.469519206531249	0.021647415751037003
-0.469458171374999	0.013079618023828492
-0.469397136218749	0.004500222996224281
-0.469336101062499	-0.004077466686776333
-0.469275065906249	-0.012654918065726382
-0.469214030749999	-0.02123831855231996
-0.469152995593749	-0.029816623963090476
-0.469091960437499	-0.03838418711334622
-0.469030925281249	-0.04694918494062323
-0.468969890124999	-0.055506173761830806
-0.468908854968749	-0.06404387916144273
-0.468847819812499	-0.07256831184547843
-0.468786784656249	-0.08108132670720244
