Time	Frequency
-0.5000026407812506	-0.47038670287901624
-0.49994160562500056	-0.46804369874912466
-0.49988057046875056	-0.4655786139340941
-0.49981953531250056	-0.4630033897194327
-0.49975850015625056	-0.4602827381140427
-0.49969746500000056	-0.4574393063593926
-0.49963642984375056	-0.4544885595696173
-0.49957539468750056	-0.4513965385367246
-0.49951435953125056	-0.44818181932831214
-0.49945332437500056	-0.44486264442437967
-0.49939228921875056	-0.4414065117287461
-0.49933125406250056	-0.4378279902430112
-0.49927021890625056	-0.4341477826888461
-0.49920918375000056	-0.4303353228349311
-0.49914814859375056	-0.42640134009030756
-0.49908711343750056	-0.422368413959547
-0.49902607828125056	-0.4182082777160925
-0.49896504312500056	-0.41392832155304093
-0.49890400796875056	-0.40955252663172137
-0.49884297281250056	-0.4050547506932856
-0.49878193765625056	-0.4004389170740191
-0.49872090250000056	-0.39573016943113853
-0.49865986734375056	-0.39090527981801354
-0.49859883218750056	-0.38596497980524935
-0.49853779703125056	-0.3809344065083685
-0.49847676187500056	-0.37579304892002674
-0.49841572671875056	-0.3705393887323077
-0.49835469156250056	-0.3651987749678938
-0.49829365640625056	-0.3597534798558519
-0.49823262125000056	-0.35419976936886727
-0.49817158609375056	-0.3485623353414294
-0.49811055093750056	-0.3428257556647826
-0.49804951578125056	-0.3369846233831757
-0.49798848062500056	-0.33106345007527
-0.49792744546875056	-0.3250493098930209
-0.49786641031250056	-0.3189348528837481
-0.49780537515625056	-0.31274377882357063
-0.49774434000000056	-0.3064659900578171
-0.49768330484375056	-0.3000929345239877
-0.49762226968750056	-0.2936471274200819
-0.49756123453125056	-0.28712098143518283
-0.49750019937500056	-0.28050498722485495
-0.49743916421875056	-0.27382004001224325
-0.49737812906250056	-0.2670605963429262
-0.49731709390625056	-0.2602166241230081
-0.49725605875000056	-0.25330795132907924
-0.49719502359375056	-0.24633135158980626
-0.49713398843750056	-0.23927643099322587
-0.49707295328125056	-0.23216150955582243
-0.49701191812500056	-0.2249850077853791
-0.49695088296875056	-0.21773600738904658
-0.49688984781250056	-0.21043131797203565
-0.49682881265625056	-0.20307138628910218
-0.49676777750000056	-0.19564543004906804
-0.49670674234375056	-0.18816875831407967
-0.49664570718750056	-0.1806435227595367
-0.49658467203125056	-0.17305889889908552
-0.49652363687500056	-0.16542824331114192
-0.49646260171875056	-0.15775517327218294
-0.49640156656250056	-0.15002956003336151
-0.49634053140625056	-0.14226354991990353
-0.49627949625000056	-0.13446194031345535
-0.49621846109375056	-0.12661446666773812
-0.49615742593750056	-0.11873170660628246
-0.49609639078125056	-0.11082002549571883
-0.49603535562500056	-0.10286952886927499
-0.49597432046875056	-0.09488911443471663
-0.49591328531250056	-0.08688619011495301
-0.49585225015625056	-0.07885130496591493
-0.49579121500000056	-0.07079210129472716
-0.49573017984375056	-0.06271739114975307
-0.49566914468750056	-0.05461858380643349
-0.49560810953125056	-0.04650154686510469
-0.49554707437500056	-0.03837499826298903
-0.49548603921875056	-0.030230631935256335
-0.49542500406250056	-0.02207389486858993
-0.49536396890625056	-0.01391487575944799
-0.49530293375000056	-0.005745444260211783
-0.49524189859375056	0.002430316333375249
-0.49518086343750056	0.010601686825706683
-0.49511982828125056	0.01877665912200516
-0.49505879312500056	0.026952072531832353
-0.49499775796875056	0.03511613254262384
-0.49493672281250056	0.043276355917185094
-0.49487568765625056	0.05143082702200679
-0.49481465250000056	0.0595677655136764
-0.49475361734375056	0.06769454326999427
-0.49469258218750056	0.07580911787728493
-0.49463154703125056	0.08389854225199658
-0.49457051187500056	0.09197074165069459
-0.49450947671875056	0.10002488354837495
-0.49444844156250056	0.10804722091184946
-0.49438740640625056	0.11604575840852313
-0.49432637125000056	0.12402049735883552
-0.49426533609375056	0.13195680184702324
-0.49420430093750056	0.13986232972528742
-0.49414326578125056	0.14773750589331716
-0.49408223062500056	0.15556746005914107
-0.49402119546875056	0.16336046007864694
-0.49396016031250056	0.17111724529548075
-0.49389912515625056	0.17882205451642555
-0.49383809000000056	0.18648343214038215
-0.49377705484375056	0.19410249633522927
-0.49371601968750056	0.20166293944461045
-0.49365498453125056	0.2091738942560956
-0.49359394937500056	0.21663697357416684
-0.49353291421875056	0.22403517558588829
-0.49347187906250056	0.23137757694328753
-0.49341084390625056	0.23866569894480974
-0.49334980875000056	0.24588243534596135
-0.49328877359375056	0.2530379658553758
-0.49322773843750056	0.2601339124987244
-0.49316670328125056	0.2671522775929798
-0.49310566812500056	0.2741035291381589
-0.49304463296875056	0.2809893794489557
-0.49298359781250056	0.2877914088608708
-0.49292256265625056	0.29452058637749895
-0.49286152750000056	0.3011790919105628
-0.49280049234375056	0.30774849583831804
-0.49273945718750056	0.31423988125527386
-0.49267842203125056	0.3206551904200644
-0.49261738687500056	0.32697581147664234
-0.49255635171875056	0.33321306219697716
-0.49249531656250056	0.3393687604897483
-0.49243428140625056	0.3454241890812499
-0.49237324625000056	0.351391161704873
-0.49231221109375056	0.35727210028226064
-0.49225117593750056	0.36304817604897904
-0.49219014078125056	0.3687306165443003
-0.49212910562500056	0.37432213706249956
-0.49206807046875056	0.3798043531296397
-0.49200703531250056	0.3851881044822771
-0.49194600015625056	0.3904763210853216
-0.49188496500000056	0.39565080902617505
-0.49182392984375056	0.40072190844433786
-0.49176289468750056	0.4056934823957549
-0.49170185953125056	0.4105477489664544
-0.49164082437500056	0.4152936110859434
-0.49157978921875056	0.41993578466050774
-0.49151875406250056	0.42445759122642396
-0.49145771890625056	0.42886651821782096
-0.49139668375000056	0.4331680087099283
-0.49133564859375056	0.4373461988331915
-0.49127461343750056	0.4414067168751475
-0.49121357828125056	0.4453562602783826
-0.49115254312500056	0.449180197120317
-0.49109150796875056	0.45288185045676665
-0.49103047281250056	0.45646950049570273
-0.49096943765625056	0.45992996281885656
-0.49090840250000056	0.46326342923381286
-0.49084736734375056	0.466479864951731
-0.49078633218750056	0.46956810863879467
-0.49072529703125056	0.4725248936835981
-0.49066426187500056	0.4753618546460125
-0.49060322671875056	0.4780700101073964
-0.49054219156250056	0.48064219373646627
-0.49048115640625056	0.48309196560834405
-0.49042012125000056	0.4854131300443697
-0.49035908609375056	0.4875942365072236
-0.49029805093750056	0.48965058230296626
-0.49023701578125056	0.4915790048185742
-0.49017598062500056	0.4933633035349588
-0.49011494546875056	0.4950204637287442
-0.49005391031250056	0.4965510279198398
-0.48999287515625056	0.4979337897805531
-0.48993184000000056	0.4991870051396051
-0.48987080484375056	0.5003154776320813
-0.48980976968750056	0.501293102297851
-0.48974873453125056	0.5021389278726088
-0.48968769937500056	0.5028622134434058
-0.48962666421875056	0.5034320030284805
-0.48956562906250056	0.5038677508229737
-0.48950459390625056	0.5041835799346813
-0.48944355875000056	0.5043438999217438
-0.48938252359375056	0.5043679571396846
-0.48932148843750056	0.504275039657833
-0.48926045328125056	0.5040253181243591
-0.48919941812500056	0.5036370829839701
-0.48913838296875056	0.5031349838694125
-0.48907734781250056	0.5024756238577942
-0.48901631265625056	0.5016756168213036
-0.48895527750000056	0.5007650045244059
-0.48889424234375056	0.49969748938062414
-0.48883320718750056	0.4984871170205625
-0.48877217203125056	0.4971693337270668
-0.48871113687500056	0.4956961445878322
-0.48865010171875056	0.49407822745432267
-0.48858906656250056	0.4923558008853679
-0.48852803140625056	0.4904802165516655
-0.48846699625000056	0.4884583862698977
-0.48840596109375056	0.48633478782475603
-0.48834492593750056	0.48406110076199477
-0.48828389078125056	0.48164008560925325
-0.48822285562500056	0.47911984934037477
-0.48816182046875056	0.47645329971552675
-0.48810078531250056	0.473638790387459
-0.48803975015625056	0.47072739809879055
-0.48797871500000056	0.4676740562818763
-0.48791767984375056	0.4644725565727937
-0.48785664468750056	0.4611764348539448
-0.48779560953125056	0.457743711936116
-0.48773457437500056	0.45416338967460124
-0.48767353921875056	0.45049005249259266
-0.48761250406250056	0.4466853939035962
-0.48755146890625056	0.44273441255485296
-0.48749043375000056	0.43869240709078294
-0.48742939859375056	0.4345249313320285
-0.48736836343750056	0.43021277424176774
-0.48730732828125056	0.425811473598295
-0.48724629312500056	0.4212911624430056
-0.48718525796875056	0.4166283156503463
-0.48712422281250056	0.4118777682350871
-0.48706318765625056	0.4070150381926622
-0.48700215250000056	0.4020129757357576
-0.48694111734375056	0.3969246663896788
-0.48688008218750056	0.39173082739779874
-0.48681904703125056	0.38640134181282804
-0.48675801187500056	0.38098723204364116
-0.48669697671875056	0.3754745282390122
-0.48663594156250056	0.3698307379141992
-0.48657490640625056	0.36410423239890227
-0.48651387125000056	0.3582858464277784
-0.48645283609375056	0.352340813370196
-0.48639180093750056	0.3463149784522034
-0.48633076578125056	0.34020490620420896
-0.48626973062500056	0.33397372894948935
-0.48620869546875056	0.3276632040312675
-0.48614766031250056	0.3212755204359631
-0.48608662515625056	0.3147732552052447
-0.48602559000000056	0.30819384814303347
-0.48596455484375056	0.30154402352845405
-0.48590351968750056	0.2947860582968838
-0.48584248453125056	0.28795316900401124
-0.48578144937500056	0.28105662513418594
-0.48572041421875056	0.27405931236112935
-0.48565937906250056	0.26699016186128927
-0.48559834390625056	0.2598640357995224
-0.48553730875000056	0.2526443680357554
-0.48547627359375056	0.24535582883988205
-0.48541523843750056	0.2380170049352519
-0.48535420328125056	0.23059271078781926
-0.48529316812500056	0.22310304778925438
-0.48523213296875056	0.21556930652683
-0.48517109781250056	0.20795785845427417
-0.48511006265625056	0.2002845418317823
-0.48504902750000056	0.19257351240373433
-0.48498799234375056	0.18479361500051236
-0.48492695718750056	0.17695638647538248
-0.48486592203125056	0.1690875515557827
-0.48480488687500056	0.161158318295496
-0.48474385171875056	0.15317636322044179
-0.48468281656250056	0.14516863649092818
-0.48462178140625056	0.13710892061246502
-0.48456074625000056	0.1290013637177651
-0.48449971109375056	0.120873763702281
-0.48443867593750056	0.11270277065485683
-0.48437764078125056	0.10448940686976005
-0.48431660562500056	0.096262013048332
-0.48425557046875056	0.08800040043685588
-0.48419453531250056	0.07970259737040308
-0.48413350015625056	0.07139634976819673
-0.48407246500000056	0.06306410198016742
-0.48401142984375056	0.054701341576768744
-0.48395039468750056	0.046335230871759385
-0.48388935953125056	0.037951458523108994
-0.48382832437500056	0.029544204799124417
-0.48376728921875056	0.021139791941806242
-0.48370625406250056	0.012725966051098584
-0.48364521890625056	0.004295187806343769
-0.48358418375000056	-0.004126647972972088
-0.48352314859375056	-0.012549238210114942
-0.48346211343750056	-0.020982438914660343
-0.48340107828125056	-0.029401971950686338
-0.48334004312500056	-0.0378142450769406
-0.48327900796875056	-0.04622959109788256
-0.48321797281250056	-0.05462549750774389
-0.48315693765625056	-0.0630063709909479
-0.48309590250000056	-0.07138316430436653
-0.48303486734375056	-0.0797345838940509
-0.48297383218750056	-0.08806260381962894
-0.48291279703125056	-0.09637893854061325
-0.48285176187500056	-0.10466489477739334
-0.48279072671875056	-0.11292097763507841
-0.48272969156250056	-0.12115840601303007
-0.48266865640625056	-0.12935924945519023
-0.48260762125000056	-0.13752207639878647
-0.48254658609375056	-0.14565856458848583
-0.48248555093750056	-0.1537530454828991
-0.48242451578125056	-0.1618026673827281
-0.48236348062500056	-0.16981876841846957
-0.48230244546875056	-0.17778726220194452
-0.48224141031250056	-0.18570388780193622
-0.48218037515625056	-0.19357977574019655
-0.48211934000000056	-0.2014025039126527
-0.48205830484375056	-0.20916636591039103
-0.48199726968750056	-0.216882136909413
-0.48193623453125056	-0.2245393732149366
-0.48187519937500056	-0.2321315128879497
-0.48181416421875056	-0.2396687721050908
-0.48175312906250056	-0.24714182386503236
-0.48169209390625056	-0.254542811242496
-0.48163105875000056	-0.26188181198916616
-0.48157002359375056	-0.2691516005393432
-0.48150898843750056	-0.2763435242493659
-0.48144795328125056	-0.2834668033976202
-0.48138691812500056	-0.2905154993962958
-0.48132588296875056	-0.29748029545134036
-0.48126484781250056	-0.304369919042261
-0.48120381265625056	-0.3111797315881715
-0.48114277750000056	-0.3178997741816595
-0.48108174234375056	-0.324538438865761
-0.48102070718750056	-0.3310923948836563
-0.48095967203125056	-0.3375510104232983
-0.48089863687500056	-0.3439223225439937
-0.48083760171875056	-0.3502041059277445
-0.48077656656250056	-0.3563849523971902
-0.48071553140625056	-0.36247265739014517
-0.48065449625000056	-0.36846636418749906
-0.48059346109375056	-0.3743541390879812
-0.48053242593750056	-0.380143171571853
-0.48047139078125056	-0.38583346596800244
-0.48041035562500056	-0.39141314532495847
-0.48034932046875056	-0.39688954210226446
-0.48028828531250056	-0.4022627916971123
-0.48022725015625056	-0.40752001861832265
-0.48016621500000056	-0.41266905074089844
-0.48010517984375056	-0.41771114928992653
-0.48004414468750056	-0.42263269063198877
-0.47998310953125056	-0.42744163842075866
-0.47992207437500056	-0.432140222189826
-0.47986103921875056	-0.4367141535077226
-0.47980000406250056	-0.44117115534061024
-0.47973896890625056	-0.4455138340596877
-0.47967793375000056	-0.4497277107512103
-0.47961689859375056	-0.45382133993009516
-0.47955586343750056	-0.45779770661437896
-0.47949482828125056	-0.46164126642687003
-0.47943379312500056	-0.46536086245425523
-0.47937275796875056	-0.4689600897775643
-0.47931172281250056	-0.47242301556142574
-0.47925068765625056	-0.4757591324701837
-0.47918965250000056	-0.47897249357352445
-0.47912861734375056	-0.4820465054685274
-0.47906758218750056	-0.48499089888831237
-0.47900654703125056	-0.48780986492545775
-0.47894551187500056	-0.49048647262993283
-0.47888447671875056	-0.4930311705699224
-0.47882344156250056	-0.49544832884826295
-0.47876240640625056	-0.4977205801836309
-0.47870137125000056	-0.49985905643429956
-0.47864033609375056	-0.501868330449891
-0.47857930093750056	-0.5037305349975538
-0.47851826578125056	-0.505457187361857
-0.47845723062500056	-0.5070530145819214
-0.47839619546875056	-0.5084999714029024
-0.47833516031250056	-0.5098100884706743
-0.47827412515625056	-0.5109882452124547
-0.47821309000000056	-0.5120161917129202
-0.47815205484375056	-0.5129062173776953
-0.47809101968750056	-0.5136633476711574
-0.47802998453125056	-0.5142693004310457
-0.47796894937500056	-0.5147365291662691
-0.47790791421875056	-0.5150703986656036
-0.47784687906250056	-0.5152527357020475
-0.47778584390625056	-0.5152957224910947
-0.47772480875000056	-0.5152050611175006
-0.47766377359375056	-0.5149629623617166
-0.47760273843750056	-0.5145811628197654
-0.47754170328125056	-0.5140658006280836
-0.47748066812500056	-0.51339958031351
-0.47741963296875056	-0.5125934849354683
-0.47735859781250056	-0.5116543139979332
-0.47729756265625056	-0.510565431911929
-0.47723652750000056	-0.5093366150775205
-0.47717549234375056	-0.5079755766157289
-0.47711445718750056	-0.5064666719642015
-0.47705342203125056	-0.5048178947722749
-0.47699238687500056	-0.503037782046226
-0.47693135171875056	-0.5011120124890313
-0.47687031656250056	-0.4990467735905655
-0.47680928140625056	-0.4968518477602741
-0.47674824625000056	-0.49451415267691706
-0.47668721109375056	-0.4920371261252311
-0.47662617593750056	-0.48943223502665933
-0.47656514078125056	-0.4866884140991377
-0.47650410562500056	-0.4838056092321698
-0.47644307046875056	-0.4807966611970243
-0.47638203531250056	-0.4776529734951983
-0.47632100015625056	-0.47437090123780057
-0.47625996500000056	-0.47096491501937826
-0.47619892984375056	-0.46742918397605593
-0.47613789468750056	-0.4637558914481593
-0.47607685953125056	-0.45996113269773725
-0.47601582437500056	-0.45604221741998197
-0.47595478921875056	-0.45198658105426237
-0.47589375406250056	-0.4478118033336086
-0.47583271890625056	-0.4435188768516327
-0.47577168375000056	-0.4390902578784321
-0.47571064859375056	-0.43454515786800735
-0.47564961343750056	-0.42988915974152114
-0.47558857828125056	-0.4250991622628093
-0.47552754312500056	-0.4201947506554288
-0.47546650796875056	-0.4151865441459609
-0.47540547281250056	-0.4100466934824545
-0.47534443765625056	-0.4047949756096589
-0.47528340250000056	-0.39944688930973354
-0.47522236734375056	-0.39396961005249326
-0.47516133218750056	-0.38838287047484754
-0.47510029703125056	-0.3827078311260779
-0.47503926187500056	-0.37690704822611326
-0.47497822671875056	-0.370999226399847
-0.47491719156250056	-0.36501114787096417
-0.47485615640625056	-0.35890127101664976
-0.47479512125000056	-0.3526866022812894
-0.47473408609375056	-0.3463996755122135
-0.47467305093750056	-0.3399956242065119
-0.47461201578125056	-0.33348920565876794
-0.47455098062500056	-0.3269189671468811
-0.47448994546875056	-0.3202373734416494
-0.47442891031250056	-0.313455434289472
-0.47436787515625056	-0.3066173562816948
-0.47430684000000056	-0.29967467179238627
-0.47424580484375056	-0.29263413109668945
-0.47418476968750056	-0.285544633507314
-0.47412373453125056	-0.27835792636639844
-0.47406269937500056	-0.2710763094324335
-0.47400166421875056	-0.2637527089323309
-0.47394062906250056	-0.256340130481759
-0.47387959390625056	-0.24883601731462782
-0.47381855875000056	-0.24129623462756095
-0.47375752359375056	-0.23367592384097374
-0.47369648843750056	-0.2259679118271346
-0.47363545328125056	-0.2182303356809072
-0.47357441812500056	-0.21042088062137046
-0.47351338296875056	-0.2025276965518974
-0.47345234781250056	-0.19461128104924727
-0.47339131265625056	-0.18663313912069265
-0.47333027750000056	-0.17857567358394502
-0.47326924234375056	-0.17049947747520397
-0.47320820718750056	-0.16237117716699753
-0.47314717203125056	-0.15416947125076544
-0.47308613687500056	-0.1459543636636046
-0.47302510171875056	-0.1376965754417925
-0.47296406656250056	-0.12937068027628762
-0.47290303140625056	-0.12103617135201913
-0.47284199625000056	-0.11266911143487969
-0.47278096109375056	-0.10424025069610776
-0.47271992593750056	-0.09580752899794165
-0.47265889078125056	-0.08735254647779861
-0.47259785562500056	-0.07884233523834172
-0.47253682046875056	-0.07033203886430484
-0.47247578531250056	-0.061809206722568816
-0.47241475015625056	-0.05323875768119925
-0.47235371500000056	-0.044672731565084715
-0.47229267984375056	-0.036103739668735424
-0.47223164468750056	-0.02749459219107187
-0.47217060953125056	-0.018893996660551853
-0.47210957437500056	-0.010299823504167837
-0.47204853921875056	-0.0016733270038189708
-0.47198750406250056	0.006940398701036924
-0.47192646890625056	0.015538015952865648
-0.47186543375000056	0.02415949344084846
-0.47180439859375056	0.03276431414654143
-0.47174336343750056	0.0413440267454727
-0.47168232828125056	0.04993910341158669
-0.47162129312500056	0.058513774516984626
-0.47156025796875056	0.06705448513466486
-0.47149922281250056	0.07560133680732017
-0.47143818765625056	0.08412384085482458
-0.47137715250000056	0.09260429152838114
-0.47131611734375056	0.10108164878487101
-0.47125508218750056	0.1095303157585325
-0.47119404703125056	0.11792901139054857
-0.47113301187500056	0.12631527980105722
-0.47107197671875056	0.13466857814462022
-0.47101094156250056	0.14296467750710218
-0.47094990640625056	0.15123891402176923
-0.47088887125000056	0.1594755267695776
-0.47082783609375056	0.16764832164496574
-0.47076680093750056	0.17579029282433264
-0.47070576578125056	0.18388973573202724
-0.47064473062500056	0.1919183607586348
-0.47058369546875056	0.19990673747178608
-0.47052266031250056	0.20784775068619893
-0.47046162515625056	0.2157118788630863
-0.47040059000000056	0.22352680278927173
