Time	Frequency
-0.5000020073749987	-0.2254684085944293
-0.49994097221874867	-0.23325470981496246
-0.49987993706249867	-0.24097356874033213
-0.49981890190624867	-0.24863655226598208
-0.49975786674999867	-0.2562245022439292
-0.49969683159374867	-0.263736421852148
-0.49963579643749867	-0.2711865629122739
-0.49957476128124867	-0.27855639355948486
-0.49951372612499867	-0.28584225846178396
-0.49945269096874867	-0.29306089257459
-0.49939165581249867	-0.3001937307237902
-0.49933062065624867	-0.3072336068895928
-0.49926958549999867	-0.3142006125442504
-0.49920855034374867	-0.3210777509978765
-0.49914751518749867	-0.32785371343196823
-0.49908648003124867	-0.33455095600929674
-0.49902544487499867	-0.34115486251349936
-0.49896440971874867	-0.347649870457692
-0.49890337456249867	-0.3540596010817478
-0.49884233940624867	-0.3603722974757173
-0.49878130424999867	-0.3665690295915699
-0.49872026909374867	-0.3726746093021992
-0.49865923393749867	-0.37868007137524645
-0.49859819878124867	-0.3845622406627202
-0.49853716362499867	-0.39034674535784686
-0.49847612846874867	-0.39602902225468134
-0.49841509331249867	-0.4015818074318557
-0.49835405815624867	-0.40702998327957435
-0.49829302299999867	-0.4123740455528345
-0.49823198784374867	-0.417583324621413
-0.49817095268749867	-0.42268051386182165
-0.49810991753124867	-0.42767142728178
-0.49804888237499867	-0.43252325830602784
-0.49798784721874867	-0.43725609118348296
-0.49792681206249867	-0.44188126344496054
-0.49786577690624867	-0.44636371810062614
-0.49780474174999867	-0.4507190705822094
-0.49774370659374867	-0.4549649233760874
-0.49768267143749867	-0.45906611273088843
-0.49762163628124867	-0.4630327472292683
-0.49756060112499867	-0.4668880198829408
-0.49749956596874867	-0.4705976349479342
-0.49743853081249867	-0.47416500257613536
-0.49737749565624867	-0.4776184658168474
-0.49731646049999867	-0.48092660310572616
-0.49725542534374867	-0.48408556916824996
-0.49719439018749867	-0.48712738252547316
-0.49713335503124867	-0.49002497383380106
-0.49707231987499867	-0.4927674201178557
-0.49701128471874867	-0.4953890237283848
-0.49695024956249867	-0.49786834437903327
-0.49688921440624867	-0.5001876593263721
-0.49682817924999867	-0.5023814303854407
-0.49676714409374867	-0.5044347960829152
-0.49670610893749867	-0.506324871890755
-0.49664507378124867	-0.5080847178798437
-0.49658403862499867	-0.5097061356697289
-0.49652300346874867	-0.5111624760781435
-0.49646196831249867	-0.5124836005993076
-0.49640093315624867	-0.5136675056237185
-0.49633989799999867	-0.5146860631910719
-0.49627886284374867	-0.5155651576056206
-0.49621782768749867	-0.5163075964071542
-0.49615679253124867	-0.5168854017796457
-0.49609575737499867	-0.5173203753413246
-0.49603472221874867	-0.5176185361333264
-0.49597368706249867	-0.5177532903656246
-0.49591265190624867	-0.5177430780876846
-0.49585161674999867	-0.5175956711384911
-0.49579058159374867	-0.5172863039432152
-0.49572954643749867	-0.5168309293682026
-0.49566851128124867	-0.5162379180138305
-0.49560747612499867	-0.5154843303148343
-0.49554644096874867	-0.5145847980987591
-0.49548540581249867	-0.5135475916198384
-0.49542437065624867	-0.5123508448661154
-0.49536333549999867	-0.5110089862127949
-0.49530230034374867	-0.509530451093052
-0.49524126518749867	-0.5078932529702005
-0.49518023003124867	-0.5061117727936318
-0.49511919487499867	-0.504195428559511
-0.49505815971874867	-0.5021215509055796
-0.49499712456249867	-0.4999043352304053
-0.49493608940624867	-0.49755499814619164
-0.49487505424999867	-0.49504956279036866
-0.49481401909374867	-0.49240138699810393
-0.49475298393749867	-0.48962480845175793
-0.49469194878124867	-0.48669472878958536
-0.49463091362499867	-0.48362211039895836
-0.49456987846874867	-0.48042471679469406
-0.49450884331249867	-0.47707725591526035
-0.49444780815624867	-0.4735874352112346
-0.49438677299999867	-0.46997662548756225
-0.49432573784374867	-0.46622054016852005
-0.49426470268749867	-0.46232268514447
-0.49420366753124867	-0.4583072858464477
-0.49414263237499867	-0.45415201925801546
-0.49408159721874867	-0.44985570270831354
-0.49402056206249867	-0.4454449947896648
-0.49395952690624867	-0.4409012558628485
-0.49389849174999867	-0.43621827860650253
-0.49383745659374867	-0.4314230804154693
-0.49377642143749867	-0.42650176298405257
-0.49371538628124867	-0.42144435174762146
-0.49365435112499867	-0.4162767027977929
-0.49359331596874867	-0.41098969155451975
-0.49353228081249867	-0.4055708272279939
-0.49347124565624867	-0.4000439235960821
-0.49341021049999867	-0.3944044436909937
-0.49334917534374867	-0.3886383864528872
-0.49328814018749867	-0.382766511894132
-0.49322710503124867	-0.3767881711868182
-0.49316606987499867	-0.3706893815860761
-0.49310503471874867	-0.3644878898213358
-0.49304399956249867	-0.3581857376742483
-0.49298296440624867	-0.3517697058758585
-0.49292192924999867	-0.34525497541515043
-0.49286089409374867	-0.33864528534511973
-0.49279985893749867	-0.33192824361317036
-0.49273882378124867	-0.32511672161168353
-0.49267778862499867	-0.31821570913898883
-0.49261675346874867	-0.3112143342222246
-0.49255571831249867	-0.30412411370441383
-0.49249468315624867	-0.29695037136695146
-0.49243364799999867	-0.28968257250739543
-0.49237261284374867	-0.28233142833049746
-0.49231157768749867	-0.27490345643946407
-0.49225054253124867	-0.2673882056689858
-0.49218950737499867	-0.2597949256954821
-0.49212847221874867	-0.25213119057324257
-0.49206743706249867	-0.24438732233919389
-0.49200640190624867	-0.23657179570676773
-0.49194536674999867	-0.228692799950324
-0.49188433159374867	-0.22074034984527108
-0.49182329643749867	-0.21272199425089552
-0.49176226128124867	-0.20464778748777904
-0.49170122612499867	-0.19650811339322252
-0.49164019096874867	-0.18830849452141235
-0.49157915581249867	-0.1800598230439172
-0.49151812065624867	-0.17175302375615437
-0.49145708549999867	-0.163392244730501
-0.49139605034374867	-0.1549900963172264
-0.49133501518749867	-0.1465384911135946
-0.49127398003124867	-0.13803915108143278
-0.49121294487499867	-0.12950547882630162
-0.49115190971874867	-0.12093108748728218
-0.49109087456249867	-0.11231539431135068
-0.49102983940624867	-0.10367162285947126
-0.49096880424999867	-0.0949955528092918
-0.49090776909374867	-0.0862855816340308
-0.49084673393749867	-0.07755473615367345
-0.49078569878124867	-0.06880034522787581
-0.49072466362499867	-0.06001934267037422
-0.49066362846874867	-0.05122413139228941
-0.49060259331249867	-0.042413679655798196
-0.49054155815624867	-0.033583848315914176
-0.49048052299999867	-0.024746626242556354
-0.49041948784374867	-0.015903164146153313
-0.49035845268749867	-0.007048457101647651
-0.49029741753124867	0.0018070842751944437
-0.49023638237499867	0.010660990414622493
-0.49017534721874867	0.019518417739143805
-0.49011431206249867	0.028369655757902873
-0.49005327690624867	0.037210584989281884
-0.48999224174999867	0.04604662787681459
-0.48993120659374867	0.054869709979278924
-0.48987017143749867	0.06367472958956823
-0.48980913628124867	0.07246687158393074
-0.48974810112499867	0.08123944982969492
-0.48968706596874867	0.08998663006244412
-0.48962603081249867	0.09871247143061354
-0.48956499565624867	0.10741028755547255
-0.48950396049999867	0.1160742001255404
-0.48944292534374867	0.12470975378082608
-0.48938189018749867	0.13331156557837634
-0.48932085503124867	0.1418719382704224
-0.48925981987499867	0.15039546350085997
-0.48919878471874867	0.15887802578424054
-0.48913774956249867	0.16731153797577183
-0.48907671440624867	0.17570019607203197
-0.48901567924999867	0.1840408305251888
-0.48895464409374867	0.19232472439134848
-0.48889360893749867	0.20055614247875245
-0.48883257378124867	0.20873360380778724
-0.48877153862499867	0.21684742138196936
-0.48871050346874867	0.22490073087554927
-0.48864946831249867	0.23289323819217045
-0.48858843315624867	0.24081465225552698
-0.48852739799999867	0.24866761874124135
-0.48846636284374867	0.2564538438853237
-0.48840532768749867	0.2641625808954541
-0.48834429253124867	0.27179504567937873
-0.48828325737499867	0.279354517489404
-0.48822222221874867	0.2868303338612641
-0.48816118706249867	0.29422227814746554
-0.48810015190624867	0.30153477680657553
-0.48803911674999867	0.3087574518632736
-0.48797808159374867	0.31588903163272836
-0.48791704643749867	0.32293530260592906
-0.48785601128124867	0.3298861203202134
-0.48779497612499867	0.3367386933078377
-0.48773394096874867	0.34350017399218247
-0.48767290581249867	0.3501608742885416
-0.48761187065624867	0.3567159059103643
-0.48755083549999867	0.363173670050141
-0.48748980034374867	0.3695261497122912
-0.48742876518749867	0.3757670111147653
-0.48736773003124867	0.381905008102351
-0.48730669487499867	0.3879328137791576
-0.48724565971874867	0.3938423967458247
-0.48718462456249867	0.3996432238125178
-0.48712358940624867	0.4053296081426765
-0.48706255424999867	0.4108923395341915
-0.48700151909374867	0.41634116491073364
-0.48694048393749867	0.4216715045576254
-0.48687944878124867	0.42687256857481914
-0.48681841362499867	0.4319544134300656
-0.48675737846874867	0.43691425992042077
-0.48669634331249867	0.4417399164504156
-0.48663530815624867	0.4464411916699592
-0.48657427299999867	0.45101696298799654
-0.48651323784374867	0.45545386299915647
-0.48645220268749867	0.45976176744142055
-0.48639116753124867	0.46394157339848496
-0.48633013237499867	0.46797824105903607
-0.48626909721874867	0.4718810552279097
-0.48620806206249867	0.47565350648560506
-0.48614702690624867	0.4792791984055962
-0.48608599174999867	0.4827661674854214
-0.48602495659374867	0.4861205907037153
-0.48596392143749867	0.4893252349268569
-0.48590288628124867	0.492386861527042
-0.48584185112499867	0.49531448039976395
-0.48578081596874867	0.4980897693998294
-0.48571978081249867	0.5007174640903573
-0.48565874565624867	0.5032099001093334
-0.48559771049999867	0.5055483372209559
-0.48553667534374867	0.5077348989299065
-0.48547564018749867	0.5097851426447095
-0.48541460503124867	0.5116803131456922
-0.48535356987499867	0.513419553719751
-0.48529253471874867	0.515021744466829
-0.48523149956249867	0.5164685385713745
-0.48517046440624867	0.5177554792476299
-0.48510942924999867	0.5189047190746298
-0.48504839409374867	0.5198991240670091
-0.48498735893749867	0.5207301859558195
-0.48492632378124867	0.5214228446128572
-0.48486528862499867	0.521961996622341
-0.48480425346874867	0.5223349383494746
-0.48474321831249867	0.5225686476169173
-0.48468218315624867	0.5226506104716901
-0.48462114799999867	0.5225640578326197
-0.48456011284374867	0.5223376856889157
-0.48449907768749867	0.5219621430492961
-0.48443804253124867	0.5214161605121103
-0.48437700737499867	0.5207294458062056
-0.48431597221874867	0.519896983486592
-0.48425493706249867	0.5188930948034621
-0.48419390190624867	0.5177471960789647
-0.48413286674999867	0.5164594898078179
-0.48407183159374867	0.5150004736591949
-0.48401079643749867	0.5133978956236158
-0.48394976128124867	0.5116577130931932
-0.48388872612499867	0.509747391844998
-0.48382769096874867	0.5076917673723713
-0.48376665581249867	0.5055029763933363
-0.48370562065624867	0.5031463824003892
-0.48364458549999867	0.500642707089935
-0.48358355034374867	0.4980105762811509
-0.48352251518749867	0.4952141538153683
-0.48346148003124867	0.4922684941295132
-0.48340044487499867	0.4891989792860675
-0.48333940971874867	0.4859703892778855
-0.48327837456249867	0.48259056882695356
-0.48321733940624867	0.47909064251355526
-0.48315630424999867	0.47543793252206396
-0.48309526909374867	0.4716326993501006
-0.48303423393749867	0.4677108016550295
-0.48297319878124867	0.4636437225348812
-0.48291216362499867	0.45942359012144995
-0.48285112846874867	0.45508921249612544
-0.48279009331249867	0.4506179732247574
-0.48272905815624867	0.44599443503517133
-0.48266802299999867	0.44125823464789327
-0.48260698784374867	0.4363936501992835
-0.48254595268749867	0.43137896005136034
-0.48248491753124867	0.426252792525459
-0.48242388237499867	0.4210070643567542
-0.48236284721874867	0.41561553824682496
-0.48230181206249867	0.4101133298559124
-0.48224077690624867	0.4044991248137565
-0.48217974174999867	0.398744548006529
-0.48211870659374867	0.39288035990657566
-0.48205767143749867	0.38691111245794646
-0.48199663628124867	0.38080869955971997
-0.48193560112499867	0.3745991090930821
-0.48187456596874867	0.368290333344471
-0.48181353081249867	0.3618556548449297
-0.48175249565624867	0.3553171471400212
-0.48169146049999867	0.34868492088496195
-0.48163042534374867	0.34193440053141355
-0.48156939018749867	0.3350844079290863
-0.48150835503124867	0.32814559505823104
-0.48144731987499867	0.32109606303717236
-0.48138628471874867	0.313953168496318
-0.48132524956249867	0.30672684847713766
-0.48126421440624867	0.2993964070999709
-0.48120317924999867	0.291978993327995
-0.48114214409374867	0.28448446197006716
-0.48108110893749867	0.2768922078946579
-0.48102007378124867	0.2692193639518995
-0.48095903862499867	0.2614763528959078
-0.48089800346874867	0.25364189826058803
-0.48083696831249867	0.24573335154396622
-0.48077593315624867	0.2377628358689159
-0.48071489799999867	0.2297074384626201
-0.48065386284374867	0.2215836519409198
-0.48059282768749867	0.21340632477355198
-0.48053179253124867	0.2051510649018114
-0.48047075737499867	0.19683277007371444
-0.48040972221874867	0.18847027023185545
-0.48034868706249867	0.18003816958735766
-0.48028765190624867	0.17154764157666794
-0.48022661674999867	0.1630212725023532
-0.48016558159374867	0.1544341783122929
-0.48010454643749867	0.14579338888498258
-0.48004351128124867	0.1371252678753421
-0.47998247612499867	0.12840656356408373
-0.47992144096874867	0.1196388196732923
-0.47986040581249867	0.11085123365125542
-0.47979937065624867	0.10202430134720383
-0.47973833549999867	0.09315380898888614
-0.47967730034374867	0.08426943192635834
-0.47961626518749867	0.07535676785868606
-0.47955523003124867	0.06640743174465652
-0.47949419487499867	0.057449881788744085
-0.47943315971874867	0.048474612777355486
-0.47937212456249867	0.03947025984551673
-0.47931108940624867	0.03046331379123202
-0.47925005424999867	0.021449246431512126
-0.47918901909374867	0.012414564131864234
-0.47912798393749867	0.003382181304652391
-0.47906694878124867	-0.00564804276008427
-0.47900591362499867	-0.01468923558245711
-0.47894487846874867	-0.02372169295556671
-0.47888384331249867	-0.032743295310912725
-0.47882280815624867	-0.04176718432483316
-0.47876177299999867	-0.05077649621510568
-0.47870073784374867	-0.059766658660362196
-0.47863970268749867	-0.06874947303288766
-0.47857866753124867	-0.07771071098453168
-0.47851763237499867	-0.08664505016129272
-0.47845659721874867	-0.09556311367424224
-0.47839556206249867	-0.10445203249266947
-0.47833452690624867	-0.11330594810157626
-0.47827349174999867	-0.12213538517892324
-0.47821245659374867	-0.13092889816221767
-0.47815142143749867	-0.13967951907876364
-0.47809038628124867	-0.1483970606090877
-0.47802935112499867	-0.15707124777408304
-0.47796831596874867	-0.16569469771443646
-0.47790728081249867	-0.1742771638189114
-0.47784624565624867	-0.18280902397416995
-0.47778521049999867	-0.1912818708591857
-0.47772417534374867	-0.19970595880177877
-0.47766314018749867	-0.20807301202745657
-0.47760210503124867	-0.21637293709721453
-0.47754106987499867	-0.22461568169336457
-0.47748003471874867	-0.2327949009152849
-0.47741899956249867	-0.24089955467141236
-0.47735796440624867	-0.24893918379521474
-0.47729692924999867	-0.25690920681970525
-0.47723589409374867	-0.26479726954870625
-0.47717485893749867	-0.27261195515307624
-0.47711382378124867	-0.2803508317437916
-0.47705278862499867	-0.28800075366582395
-0.47699175346874867	-0.2955691131050722
-0.47693071831249867	-0.3030558531489438
-0.47686968315624867	-0.3104474343144055
-0.47680864799999867	-0.31774938487239507
-0.47674761284374867	-0.3249636831748928
-0.47668657768749867	-0.3320771376007983
-0.47662554253124867	-0.3390932932039259
-0.47656450737499867	-0.3460154885150269
-0.47650347221874867	-0.3528311546104816
-0.47644243706249867	-0.3595421759708727
-0.47638140190624867	-0.3661533387162069
-0.47632036674999867	-0.3726530562047622
-0.47625933159374867	-0.37904130130446073
-0.47619829643749867	-0.38532361967132905
-0.47613726128124867	-0.39148951187065284
-0.47607622612499867	-0.39753732186844504
-0.47601519096874867	-0.4034733284128102
-0.47595415581249867	-0.4092886249666445
-0.47589312065624867	-0.41498017188992065
-0.47583208549999867	-0.4205541310287123
-0.47577105034374867	-0.42600276736110443
-0.47571001518749867	-0.43132207546950635
-0.47564898003124867	-0.43651827973130913
-0.47558794487499867	-0.44158512387529525
-0.47552690971874867	-0.4465181406954597
-0.47546587456249867	-0.4513231933512395
-0.47540483940624867	-0.4559944658742366
-0.47534380424999867	-0.4605268903839753
-0.47528276909374867	-0.464926962249783
-0.47522173393749867	-0.46919005752499804
-0.47516069878124867	-0.473309986196885
-0.47509966362499867	-0.47729299124288027
-0.47503862846874867	-0.4811357583907733
-0.47497759331249867	-0.48483158682929417
-0.47491655815624867	-0.4883866220345983
-0.47485552299999867	-0.4917987130483537
-0.47479448784374867	-0.49506030427125275
-0.47473345268749867	-0.49817726596347617
-0.47467241753124867	-0.5011489662298508
-0.47461138237499867	-0.5039671080239883
-0.47455034721874867	-0.5066370983883544
-0.47448931206249867	-0.5091600659234238
-0.47442827690624867	-0.5115270547524171
-0.47436724174999867	-0.5137425731182125
-0.47430620659374867	-0.5158095535463525
-0.47424517143749867	-0.5177187361133958
-0.47418413628124867	-0.5194734963611374
-0.47412310112499867	-0.5210784044578375
-0.47406206596874867	-0.5225241568472005
-0.47400103081249867	-0.5238129577526662
-0.47393999565624867	-0.5249509588723758
-0.47387896049999867	-0.5259290155938384
-0.47381792534374867	-0.5267480462772244
-0.47375689018749867	-0.5274157056726085
-0.47369585503124867	-0.5279231447193288
-0.47363481987499867	-0.5282697482207076
-0.47357378471874867	-0.528464668823229
-0.47351274956249867	-0.5284997412869616
-0.47345171440624867	-0.5283725811451644
-0.47339067924999867	-0.5280935948729019
-0.47332964409374867	-0.5276557507173316
-0.47326860893749867	-0.5270549449538592
-0.47320757378124867	-0.5263023812860146
-0.47314653862499867	-0.5253922568896839
-0.47308550346874867	-0.5243189746915258
-0.47302446831249867	-0.5230943375569435
-0.47296343315624867	-0.5217138090464559
-0.47290239799999867	-0.5201704696030998
-0.47284136284374867	-0.5184766951209069
-0.47278032768749867	-0.5166292743576032
-0.47271929253124867	-0.5146197425903472
-0.47265825737499867	-0.512460764244998
-0.47259722221874867	-0.5101507285392097
-0.47253618706249867	-0.5076797403834459
-0.47247515190624867	-0.505060695009211
-0.47241411674999867	-0.5022939302967362
-0.47235308159374867	-0.4993680856812942
-0.47229204643749867	-0.49629583682591644
-0.47223101128124867	-0.49307944173885876
-0.47216997612499867	-0.4897059873915218
-0.47210894096874867	-0.48618791025402874
-0.47204790581249867	-0.48253005862471615
-0.47198687065624867	-0.4787179074275075
-0.47192583549999867	-0.4747628329102375
-0.47186480034374867	-0.47067259727602134
-0.47180376518749867	-0.46643166939354236
-0.47174273003124867	-0.4620501197604696
-0.47168169487499867	-0.457538528838426
-0.47162065971874867	-0.4528800795339121
-0.47155962456249867	-0.44808297385613194
-0.47149858940624867	-0.4431611859109498
-0.47143755424999867	-0.43809724525655386
-0.47137651909374867	-0.43289707655050247
-0.47131548393749867	-0.42757816805321036
-0.47125444878124867	-0.42212244332382026
-0.47119341362499867	-0.4165326691846931
-0.47113237846874867	-0.41083019646001057
-0.47107134331249867	-0.40499725968392264
-0.47101030815624867	-0.3990327834860664
-0.47094927299999867	-0.39296148661129665
-0.47088823784374867	-0.3867664848827832
-0.47082720268749867	-0.3804426907847324
-0.47076616753124867	-0.37401814804838684
-0.47070513237499867	-0.3674777835919643
-0.47064409721874867	-0.36081213063576106
-0.47058306206249867	-0.3540515201089998
-0.47052202690624867	-0.34718296590819575
-0.47046099174999867	-0.340192656960078
-0.47039995659374867	-0.33311330889789964
-0.47033892143749867	-0.32593493152152875
