Time	Frequency
-0.5000388445937531	-3.0021031179209844e-23
-0.49997780943750314	-2.9665883281185523e-23
-0.49991677428125314	-2.930531431252698e-23
-0.49985573912500314	-2.8937095286978544e-23
-0.49979470396875314	-2.855667641130336e-23
-0.49973366881250314	-2.816615895087396e-23
-0.49967263365625314	-2.7770637499700786e-23
-0.49961159850000314	-2.7368613780670494e-23
-0.49955056334375314	-2.6954891587751e-23
-0.49948952818750314	-2.6530752819043057e-23
-0.49942849303125314	-2.6101936869210068e-23
-0.49936745787500314	-2.566791770996835e-23
-0.49930642271875314	-2.5222946068131126e-23
-0.49924538756250314	-2.476725030279838e-23
-0.49918435240625314	-2.4307047078048918e-23
-0.49912331725000314	-2.3842945108446874e-23
-0.49906228209375314	-2.3368822017347437e-23
-0.49900124693750314	-2.28837302061992e-23
-0.49894021178125314	-2.2394196400197244e-23
-0.49887917662500314	-2.1902104943917735e-23
-0.49881814146875314	-2.140113667561892e-23
-0.49875710631250314	-2.0888985219573062e-23
-0.49869607115625314	-2.037228255759968e-23
-0.49863503600000314	-1.9854393726198025e-23
-0.49857400084375314	-1.9329036757074675e-23
-0.49851296568750314	-1.8792347402152172e-23
-0.49845193053125314	-1.8250765749392976e-23
-0.49839089537500314	-1.770928658611048e-23
-0.49832986021875314	-1.7162043469262166e-23
-0.49826882506250314	-1.660353720275207e-23
-0.49820778990625314	-1.603959374070218e-23
-0.49814675475000314	-1.5476863102239125e-23
-0.49808571959375314	-1.4910316219526228e-23
-0.49802468443750314	-1.433281692348771e-23
-0.49796364928125314	-1.3749141482451253e-23
-0.49790261412500314	-1.3167550916998361e-23
-0.49784157896875314	-1.2584314493548369e-23
-0.49778054381250314	-1.1990757018813836e-23
-0.49771950865625314	-1.1390123911997368e-23
-0.49765847350000314	-1.0792160484903597e-23
-0.49759743834375314	-1.019495031277843e-23
-0.49753640318750314	-9.588446971076924e-24
-0.49747536803125314	-8.973779895180353e-24
-0.49741433287500314	-8.361880127011817e-24
-0.49735329771875314	-7.753256345746538e-24
-0.49729226256250314	-7.136974843867003e-24
-0.49723122740625314	-6.51150455434821e-24
-0.49717019225000314	-5.888324280697785e-24
-0.49710915709375314	-5.270794249595107e-24
-0.49704812193750314	-4.647807580434324e-24
-0.49698708678125314	-4.014850957570186e-24
-0.49692605162500314	-3.383196723327136e-24
-0.49686501646875314	-2.7592877250351655e-24
-0.49680398131250314	-2.132647990846131e-24
-0.49674294615625314	-1.4956272343296346e-24
-0.49668191100000314	-8.584006811844314e-25
-0.49662087584375314	-2.3055897029640934e-25
-0.49655984068750314	3.967590595677218e-25
-0.49649880553125314	1.0342724365124666e-24
-0.49643777037500314	1.6739573470823582e-24
-0.49637673521875314	2.303343287877436e-24
-0.49631570006250314	2.9286052906289677e-24
-0.49625466490625314	3.563032116467586e-24
-0.49619362975000314	4.201780614493371e-24
-0.49613259459375314	4.830216528355767e-24
-0.49607155943750314	5.450896897130426e-24
-0.49601052428125314	6.078782934941753e-24
-0.49594948912500314	6.713020873187409e-24
-0.49588845396875314	7.337900263893889e-24
-0.49582741881250314	7.951724074475575e-24
-0.49576638365625314	8.569862940855581e-24
-0.49570534850000314	9.195870658359993e-24
-0.49564431334375314	9.81431912506932e-24
-0.49558327818750314	1.0419050664099422e-23
-0.49552224303125314	1.1024445694490416e-23
-0.49546120787500314	1.163847267850207e-23
-0.49540017271875314	1.2247458046694454e-23
-0.49533913756250314	1.2841046171937223e-23
-0.49527810240625314	1.3431124268623773e-23
-0.49521706725000314	1.402949692864137e-23
-0.49515603209375314	1.4625651058869425e-23
-0.49509499693750314	1.520588836246012e-23
-0.49503396178125314	1.577837704699533e-23
-0.49497292662500314	1.6357684053918752e-23
-0.49491189146875314	1.6937502360897986e-23
-0.49485085631250314	1.7502078517589385e-23
-0.49478982115625314	1.8055027787490532e-23
-0.49472878600000314	1.861219468714115e-23
-0.49466775084375314	1.917202648166298e-23
-0.49460671568750314	1.9718319312090825e-23
-0.49454568053125314	2.0249913791119765e-23
-0.49448464537500314	2.0782325613783163e-23
-0.49442361021875314	2.1318698233486527e-23
-0.49436257506250314	2.1843940270087002e-23
-0.49430153990625314	2.235244791561813e-23
-0.49424050475000314	2.2857904697497837e-23
-0.49417946959375314	2.3367504115430424e-23
-0.49411843443750314	2.386862218322553e-23
-0.49405739928125314	2.435211646709838e-23
-0.49399636412500314	2.4828720198643633e-23
-0.49393532896875314	2.53086599463284e-23
-0.49387429381250314	2.578270154687806e-23
-0.49381325865625314	2.6239265789247927e-23
-0.49375222350000314	2.668537602302543e-23
-0.49369118834375314	2.713306148917202e-23
-0.49363015318750314	2.757702077158649e-23
-0.49356911803125314	2.800456240030082e-23
-0.49350808287500314	2.8418722668892326e-23
-0.49344704771875314	2.8831998305690286e-23
-0.49338601256250314	2.924304185949466e-23
-0.49332497740625314	2.963934828032993e-23
-0.49326394225000314	3.0020176832188396e-23
-0.49320290709375314	3.039726905895717e-23
-0.49314187193750314	3.0772838903779707e-23
-0.49308083678125314	3.113569261778309e-23
-0.49301980162500314	3.148185884882663e-23
-0.49295876646875314	3.182132315910931e-23
-0.49289773131250314	3.2159160921558844e-23
-0.49283669615625314	3.248631956166718e-23
-0.49277566100000314	3.2796428487261287e-23
-0.49271462584375314	3.309708746002642e-23
-0.49265359068750314	3.339533663105346e-23
-0.49259255553125314	3.368472592907517e-23
-0.49253152037500314	3.395740448605673e-23
-0.49247048521875314	3.42182649783872e-23
-0.49240945006250314	3.4475390033520224e-23
-0.49234841490625314	3.472511340681162e-23
-0.49228737975000314	3.495901104676098e-23
-0.49222634459375314	3.517922629290458e-23
-0.49216530943750314	3.539401061032793e-23
-0.49210427428125314	3.560240687059354e-23
-0.49204323912500314	3.579625966881856e-23
-0.49198220396875314	3.5975155815970373e-23
-0.49192116881250314	3.614671556127262e-23
-0.49186013365625314	3.6312361279364984e-23
-0.49179909850000314	3.6464932446157586e-23
-0.49173806334375314	3.6601916676710415e-23
-0.49167702818750314	3.672968875877239e-23
-0.49161599303125314	3.685151889226266e-23
-0.49155495787500314	3.6961731894692966e-23
-0.49149392271875314	3.705627272685028e-23
-0.49143288756250314	3.713989056689148e-23
-0.49137185240625314	3.7217140512844435e-23
-0.49131081725000314	3.728412597408414e-23
-0.49124978209375314	3.7335832339024103e-23
-0.49118874693750314	3.737517177982539e-23
-0.49112771178125314	3.740737103287689e-23
-0.49106667662500314	3.743043055475043e-23
-0.49100564146875314	3.7439000129444524e-23
-0.49094460631250314	3.743413773817105e-23
-0.49088357115625314	3.742114035194749e-23
-0.49082253600000314	3.7399826658256523e-23
-0.49076150084375314	3.7365072309635603e-23
-0.49070046568750314	3.731624597461097e-23
-0.49063943053125314	3.725820266369916e-23
-0.49057839537500314	3.7192347864234864e-23
-0.49051736021875314	3.711424426304565e-23
-0.49045632506250314	3.7021845141106827e-23
-0.49039528990625314	3.691914109397668e-23
-0.49033425475000314	3.6808809327255876e-23
-0.49027321959375314	3.668748316223902e-23
-0.49021218443750314	3.6552076769685005e-23
-0.49015114928125314	3.6405406148542147e-23
-0.49009011412500314	3.625098888078681e-23
-0.49002907896875314	3.608672925373213e-23
-0.48996804381250314	3.590893770023548e-23
-0.48990700865625314	3.571915693443415e-23
-0.48984597350000314	3.5521349610901815e-23
-0.48978493834375314	3.5314734009098576e-23
-0.48972390318750314	3.509537948849171e-23
-0.48966286803125314	3.486353089280604e-23
-0.48960183287500314	3.4623222645615555e-23
-0.48954079771875314	3.437498201274666e-23
-0.48947976256250314	3.4115035871205225e-23
-0.48941872740625314	3.3842397961898966e-23
-0.48935769225000314	3.3560785840934865e-23
-0.48929665709375314	3.3271900981888937e-23
-0.48923562193750314	3.297246567093148e-23
-0.48917458678125314	3.2660440982022747e-23
-0.48911355162500314	3.233893986643313e-23
-0.48905251646875314	3.2010628646794524e-23
-0.48899148131250314	3.167297668143477e-23
-0.48893044615625314	3.1323128748683274e-23
-0.48886941100000314	3.09633693849921e-23
-0.48880837584375314	3.059707349195457e-23
-0.48874734068750314	3.0222651497481535e-23
-0.48868630553125314	2.983669723599554e-23
-0.48862527037500314	2.944051160549237e-23
-0.48856423521875314	2.903790700576889e-23
-0.48850320006250314	2.862833565269869e-23
-0.48844216490625314	2.820811029191294e-23
-0.48838112975000314	2.7777497531948994e-23
-0.48832009459375314	2.734047398735002e-23
-0.48825905943750314	2.6897543826528305e-23
-0.48819802428125314	2.6445010015662272e-23
-0.48813698912500314	2.598212425746092e-23
-0.48807595396875314	2.5512779723463028e-23
-0.48801491881250314	2.5038500854775003e-23
-0.48795388365625314	2.4555806532498787e-23
-0.48789284850000314	2.4062960147255305e-23
-0.48783181334375314	2.3563511753783024e-23
-0.48777077818750314	2.30599403314161e-23
-0.48770974303125314	2.25492721088749e-23
-0.48764870787500314	2.2028941618468664e-23
-0.48758767271875314	2.150192541193974e-23
-0.48752663756250314	2.097144322824219e-23
-0.48746560240625314	2.0435150718538417e-23
-0.48740456725000314	1.9889822888555603e-23
-0.48734353209375314	1.933777509443333e-23
-0.48728249693750314	1.8782841024445617e-23
-0.48722146178125314	1.8223401160470143e-23
-0.48716042662500314	1.7655705602554443e-23
-0.48709939146875314	1.7081319200742762e-23
-0.48703835631250314	1.6504542239936874e-23
-0.48697732115625314	1.5924583740990764e-23
-0.48691628600000314	1.533734406508876e-23
-0.48685525084375314	1.4743506118940824e-23
-0.48679421568750314	1.4147587748763144e-23
-0.48673318053125314	1.354970044935943e-23
-0.48667214537500314	1.2945650596661441e-23
-0.48661111021875314	1.2335261851375729e-23
-0.48655007506250314	1.1723109842021797e-23
-0.48648903990625314	1.1110156035941091e-23
-0.48642800475000314	1.0492196720815257e-23
-0.48636696959375314	9.868223391471276e-24
-0.48630593443750314	9.242784990571295e-24
-0.48624489928125314	8.617687803900568e-24
-0.48618386412500314	7.988801494444139e-24
-0.48612282896875314	7.354246147570729e-24
-0.48606179381250314	6.718433541333945e-24
-0.48600075865625314	6.084069251157994e-24
-0.48593972350000314	5.447282905119021e-24
-0.48587868834375314	4.805346833198644e-24
-0.48581765318750314	4.162338279089085e-24
-0.48575661803125314	3.521764367568511e-24
-0.48569558287500314	2.8801047605883524e-24
-0.48563454771875314	2.2338042695778466e-24
-0.48557351256250314	1.5865702290821687e-24
-0.48551247740625314	9.428146421628343e-25
-0.48545144225000314	2.994861269659894e-25
-0.48539040709375314	-3.4790131134673315e-25
-0.48532937193750314	-9.962390706281267e-25
-0.48526833678125314	-1.6402078936363697e-24
-0.48520730162500314	-2.282139301834356e-24
-0.48514626646875314	-2.9273906229365886e-24
-0.48508523131250314	-3.573685824126897e-24
-0.48502419615625314	-4.214874754450488e-24
-0.48496316100000314	-4.8523479079075616e-24
-0.48490212584375314	-5.4922343588363395e-24
-0.48484109068750314	-6.1332890772152154e-24
-0.48478005553125314	-6.768649915253143e-24
-0.48471902037500314	-7.398588858891448e-24
-0.48465798521875314	-8.029920066964639e-24
-0.48459695006250314	-8.662669856703762e-24
-0.48453591490625314	-9.289357480204388e-24
-0.48447487975000314	-9.90880890513696e-24
-0.48441384459375314	-1.0528315653382677e-23
-0.48435280943750314	-1.1149472737275511e-23
-0.48429177428125314	-1.1764489008714213e-23
-0.48423073912500314	-1.2370558213981988e-23
-0.48416970396875314	-1.2975166689459244e-23
-0.48410866881250314	-1.3581665442880102e-23
-0.48404763365625314	-1.41822402713498e-23
-0.48398659850000314	-1.477219827979644e-23
-0.48392556334375314	-1.5358813176400752e-23
-0.48386452818750314	-1.5947410759338476e-23
-0.48380349303125314	-1.6530652526442106e-23
-0.48374245787500314	-1.7101842234372523e-23
-0.48368142271875314	-1.7667540247256996e-23
-0.48362038756250314	-1.8235123261045753e-23
-0.48355935240625314	-1.879826632253948e-23
-0.48349831725000314	-1.9348228634524353e-23
-0.48343728209375314	-1.989025112779137e-23
-0.48337624693750314	-2.0433728190592056e-23
-0.48331521178125314	-2.097400336547232e-23
-0.48325417662500314	-2.150042174877848e-23
-0.48319314146875314	-2.2016213318259473e-23
-0.48313210631250314	-2.2532536650069167e-23
-0.48307107115625314	-2.3047096618191938e-23
-0.48301003600000314	-2.3547712547045e-23
-0.48294900084375314	-2.4034960147311338e-23
-0.48288796568750314	-2.45212700976832e-23
-0.48282693053125314	-2.5007337770127256e-23
-0.48276589537500314	-2.5480085514674058e-23
-0.48270486021875314	-2.5936822291290762e-23
-0.48264382506250314	-2.6390446256016076e-23
-0.48258278990625314	-2.6845149772696464e-23
-0.48252175475000314	-2.728789463956572e-23
-0.48246071959375314	-2.77123606019126e-23
-0.48239968443750314	-2.8130893235974404e-23
-0.48233864928125314	-2.8551424464869693e-23
-0.48227761412500314	-2.896207226443809e-23
-0.48221657896875314	-2.935280888447707e-23
-0.48215554381250314	-2.973424243251652e-23
-0.48209450865625314	-3.011791413909401e-23
-0.48203347350000314	-3.04943148702388e-23
-0.48197243834375314	-3.085005159393112e-23
-0.48191140318750314	-3.119274593002685e-23
-0.48185036803125314	-3.1536961241328266e-23
-0.48178933287500314	-3.1876793527226247e-23
-0.48172829771875314	-3.2196366192654226e-23
-0.48166726256250314	-3.249922753318151e-23
-0.48160622740625314	-3.280183075642551e-23
-0.48154519225000314	-3.310275615348439e-23
-0.48148415709375314	-3.3384940053270455e-23
-0.48142312193750314	-3.364717309121839e-23
-0.48136208678125314	-3.390637147043725e-23
-0.48130105162500314	-3.41660762098478e-23
-0.48124001646875314	-3.440960717561504e-23
-0.48117898131250314	-3.463079634946713e-23
-0.48111794615625314	-3.484534562296437e-23
-0.48105691100000314	-3.506162895900182e-23
-0.48099587584375314	-3.526503038952762e-23
-0.48093484068750314	-3.544488829768375e-23
-0.48087380553125314	-3.561410881850928e-23
-0.48081277037500314	-3.578513109787631e-23
-0.48075173521875314	-3.5946844220084653e-23
-0.48069070006250314	-3.608513278208566e-23
-0.48062966490625314	-3.6208837869425836e-23
-0.48056862975000314	-3.6333175850525163e-23
-0.48050759459375314	-3.6451580367398396e-23
-0.48044655943750314	-3.65479698083925e-23
-0.48038552428125314	-3.6626364480220483e-23
-0.48032448912500314	-3.670314608650692e-23
-0.48026345396875314	-3.6776744115399473e-23
-0.48020241881250314	-3.6830785451106917e-23
-0.48014138365625314	-3.6864342054863265e-23
-0.48008034850000314	-3.689328311989888e-23
-0.48001931334375314	-3.692082955117936e-23
-0.47995827818750314	-3.693192360869524e-23
-0.47989724303125314	-3.6921190588624623e-23
-0.47983620787500314	-3.690251601060962e-23
-0.47977517271875314	-3.688317373126407e-23
-0.47971413756250314	-3.68507239133917e-23
-0.47965310240625314	-3.6796277827370315e-23
-0.47959206725000314	-3.673062631642592e-23
-0.47953103209375314	-3.666400060101503e-23
-0.47946999693750314	-3.6587474061340004e-23
-0.47940896178125314	-3.648986557449476e-23
-0.47934792662500314	-3.637821156444527e-23
-0.47928689146875314	-3.626439473966323e-23
-0.47922585631250314	-3.614341124754834e-23
-0.47916482115625314	-3.600312590125033e-23
-0.47910378600000314	-3.5846659790270655e-23
-0.47904275084375314	-3.5686233505468805e-23
-0.47898171568750314	-3.5520705449888585e-23
-0.47892068053125314	-3.533823736455148e-23
-0.47885964537500314	-3.5138289770121216e-23
-0.47879861021875314	-3.493225203019004e-23
-0.47873757506250314	-3.4722395859103454e-23
-0.47867653990625314	-3.4498228424832013e-23
-0.47861550475000314	-3.425617697479388e-23
-0.47855446959375314	-3.400591788718545e-23
-0.47849343443750314	-3.375239767515216e-23
-0.47843239928125314	-3.348718207992572e-23
-0.47837136412500314	-3.320444489901521e-23
-0.47831032896875314	-3.291156340463539e-23
-0.47824929381250314	-3.261534333393692e-23
-0.47818825865625314	-3.23098767797604e-23
-0.47812722350000314	-3.198795397116329e-23
-0.47806618834375314	-3.165433633985136e-23
-0.47800515318750314	-3.131678253488335e-23
-0.47794411803125314	-3.0972056935546003e-23
-0.47788308287500314	-3.0612454297474096e-23
-0.47782204771875314	-3.024012044671079e-23
-0.47776101256250314	-2.986292949979834e-23
-0.47769997740625314	-2.948020406112079e-23
-0.47763894225000314	-2.908453643842815e-23
-0.47757790709375314	-2.8675673546252054e-23
-0.47751687193750314	-2.826084736417073e-23
-0.47745583678125314	-2.7841601911850724e-23
-0.47739480162500314	-2.741150172496926e-23
-0.47733376646875314	-2.6968333210562156e-23
-0.47727273131250314	-2.651814936677045e-23
-0.47721169615625314	-2.6064236561876897e-23
-0.47715066100000314	-2.5601542311681296e-23
-0.47708962584375314	-2.51263815664486e-23
-0.47702859068750314	-2.464327746883567e-23
-0.47696755553125314	-2.4156731697386783e-23
-0.47690652037500314	-2.3663384866757494e-23
-0.47684548521875314	-2.3158652252651542e-23
-0.47678445006250314	-2.2645294928547608e-23
-0.47672341490625314	-2.212842275700832e-23
-0.47666237975000314	-2.1606470556563702e-23
-0.47660134459375314	-2.10745700529398e-23
-0.47654030943750314	-2.053375194028508e-23
-0.47647927428125314	-1.9989163778929294e-23
-0.47641823912500314	-1.9440936481921278e-23
-0.47635720396875314	-1.888441977539426e-23
-0.47629616881250314	-1.8319013019683492e-23
-0.47623513365625314	-1.774940407942423e-23
-0.47617409850000314	-1.7177262353529567e-23
-0.47611306334375314	-1.659865755192174e-23
-0.47605202818750314	-1.6011654794566916e-23
-0.47599099303125314	-1.542005817817099e-23
-0.47592995787500314	-1.4826677380592445e-23
-0.47586892271875314	-1.4228596000603277e-23
-0.47580788756250314	-1.3622936026746482e-23
-0.47574685240625314	-1.3012426631950814e-23
-0.47568581725000314	-1.2400672023661989e-23
-0.47562478209375314	-1.1785897092397799e-23
-0.47556374693750314	-1.116459638412323e-23
-0.47550271178125314	-1.0538302968325398e-23
-0.47544167662500314	-9.911076323427473e-24
-0.47538064146875314	-9.282405906716468e-24
-0.47531960631250314	-8.648551306672876e-24
-0.47525857115625314	-8.009778073085152e-24
-0.47519753600000314	-7.370182410403546e-24
-0.47513650084375314	-6.730493541437152e-24
-0.47507546568750314	-6.08713047214902e-24
-0.47501443053125314	-5.439198193420274e-24
-0.47495339537500314	-4.7904897234518105e-24
-0.47489236021875314	-4.142828539641396e-24
-0.47483132506250314	-3.493060815536874e-24
-0.47477028990625314	-2.8392510657901102e-24
-0.47470925475000314	-2.1846306999299434e-24
-0.47464821959375314	-1.531991961641271e-24
-0.47458718443750314	-8.788970829044701e-25
-0.47452614928125314	-2.2257865640849637e-25
-0.47446511412500314	4.345486321442585e-25
-0.47440407896875314	1.0889950879691727e-24
-0.47434304381250314	1.7423098347774007e-24
-0.47428200865625314	2.3978342943205083e-24
-0.47422097350000314	3.054097897280743e-24
-0.47415993834375314	3.70716073805448e-24
-0.47409890318750314	4.3576015792522036e-24
-0.47403786803125314	5.009100910135023e-24
-0.47397683287500314	5.6611797151949246e-24
-0.47391579771875314	6.309672417024797e-24
-0.47385476256250314	6.954135496796687e-24
-0.47379372740625314	7.598331299122372e-24
-0.47373269225000314	8.242811645272683e-24
-0.47367165709375314	8.883491186716403e-24
-0.47361062193750314	9.518937871657262e-24
-0.47354958678125314	1.0152708996846126e-23
-0.47348855162500314	1.0786296268850712e-23
-0.47342751646875314	1.1415919842395209e-23
-0.47336648131250314	1.2039263537873e-23
-0.47330544615625314	1.2659511558274775e-23
-0.47324441100000314	1.3279009409137988e-23
-0.47318337584375314	1.389442638508546e-23
-0.47312234068750314	1.4502627786630152e-23
-0.47306130553125314	1.510627648673156e-23
-0.47300027037500314	1.5708492158412012e-23
-0.47293923521875314	1.6306569416627778e-23
-0.47287820006250314	1.6896719399494422e-23
-0.47281716490625314	1.748090952158888e-23
-0.47275612975000314	1.8062790006657136e-23
-0.47269509459375314	1.86404006866544e-23
-0.47263405943750314	1.9209529837471205e-23
-0.47257302428125314	1.9771405239607986e-23
-0.47251198912500314	2.033006476683115e-23
-0.47245095396875314	2.088430386041646e-23
-0.47238991881250314	2.14295725518692e-23
-0.47232888365625314	2.1966340661761653e-23
