Time	Frequency
-0.5000424230937526	-0.33194318858612876
-0.4999813879375026	-0.34172942910170984
-0.4999203527812526	-0.35144650609029654
-0.4998593176250026	-0.3611895712185376
-0.4997982824687526	-0.3708404907271883
-0.4997372473125026	-0.3802121241021815
-0.4996762121562526	-0.389279551325634
-0.4996151770000026	-0.39820618663032314
-0.4995541418437526	-0.4071322199691962
-0.4994931066875026	-0.4159933813143361
-0.4994320715312526	-0.42459850372588626
-0.4993710363750026	-0.43286649193002724
-0.4993100012187526	-0.4409231652921812
-0.4992489660625026	-0.4489370294671602
-0.4991879309062526	-0.45690256464700585
-0.4991268957500026	-0.4646444746047824
-0.4990658605937526	-0.4720358132885543
-0.4990048254375026	-0.479153219980355
-0.4989437902812526	-0.48617452495871916
-0.4988827551250026	-0.49315036892383907
-0.4988217199687526	-0.49993841723506593
-0.4987606848125026	-0.5063808900360339
-0.4986996496562526	-0.5124994242162862
-0.4986386145000026	-0.5184623325939406
-0.4985775793437526	-0.5243679882124077
-0.4985165441875026	-0.5301188216840831
-0.4984555090312526	-0.5355435511900019
-0.4983944738750026	-0.5406107807525241
-0.4983334387187526	-0.5454638049667797
-0.4982724035625026	-0.5502350665045593
-0.4982113684062526	-0.5548770156629966
-0.4981503332500026	-0.559222252765454
-0.4980892980937526	-0.5631936686409996
-0.4980282629375026	-0.5668977228403912
-0.4979672277812526	-0.5704854449319365
-0.4979061926250026	-0.5739596969622681
-0.4978451574687526	-0.5771720486989169
-0.4977841223125026	-0.580010274353702
-0.4977230871562526	-0.582537454402785
-0.4976620520000026	-0.5849082292621164
-0.4976010168437526	-0.5871711437475208
-0.4975399816875026	-0.5892079173016835
-0.4974789465312526	-0.5908840066527141
-0.4974179113750026	-0.5922173782896214
-0.4973568762187526	-0.5933525112938809
-0.4972958410625026	-0.5943754536369719
-0.4972348059062526	-0.5952056184235688
-0.4971737707500026	-0.5956995819577634
-0.4971127355937526	-0.5958325824384815
-0.4970517004375026	-0.595727545796188
-0.4969906652812526	-0.5954975657197495
-0.4969296301250026	-0.5951034937468123
-0.4968685949687526	-0.5944057747484093
-0.4968075598125026	-0.593342144781229
-0.4967465246562526	-0.5920053981846917
-0.4966854895000026	-0.5905245933573722
-0.4966244543437526	-0.5889023505339913
-0.4965634191875026	-0.5870140866567657
-0.4965023840312526	-0.5847678144539173
-0.4964413488750026	-0.5822207920015797
-0.4963803137187526	-0.5795064320626704
-0.4963192785625026	-0.5766661310190825
-0.4962582434062526	-0.5735995759112711
-0.4961972082500026	-0.5701947798862113
-0.4961361730937526	-0.5664713386272363
-0.4960751379375026	-0.5625557301426322
-0.4960141027812526	-0.5585219432281522
-0.4959530676250026	-0.554300689094618
-0.4958920324687526	-0.5497709999813639
-0.4958309973125026	-0.5449158728328717
-0.4957699621562526	-0.5398446824499101
-0.4957089270000026	-0.5346560562660208
-0.4956478918437526	-0.5293162776637242
-0.4955868566875026	-0.5237062025849811
-0.4955258215312526	-0.517775276309602
-0.4954647863750026	-0.5116073145130634
-0.4954037512187526	-0.5053163043540405
-0.4953427160625026	-0.4989055009798463
-0.4952816809062526	-0.4922678774871563
-0.4952206457500026	-0.48532579943097875
-0.4951596105937526	-0.4781322461545294
-0.4950985754375026	-0.4708061051324613
-0.4950375402812526	-0.4633849374771834
-0.4949765051250026	-0.45578231449224915
-0.4949154699687526	-0.4479022728271769
-0.4948544348125026	-0.43976440449252463
-0.4947933996562526	-0.4314819466947624
-0.4947323645000026	-0.42312223233351326
-0.4946713293437526	-0.4146266414119858
-0.4946102941875026	-0.40589037127815186
-0.4945492590312526	-0.3968995640695433
-0.4944882238750026	-0.3877521503096942
-0.4944271887187526	-0.378537692993003
-0.4943661535625026	-0.369229481713018
-0.4943051184062526	-0.35972451632030467
-0.4942440832500026	-0.3499791271197917
-0.4941830480937526	-0.3400682638986212
-0.4941220129375026	-0.3300946709833996
-0.4940609777812526	-0.3200642045250805
-0.4939999426250026	-0.30988475920823055
-0.4939389074687526	-0.29948878968830195
-0.4938778723125026	-0.2889237014473283
-0.4938168371562526	-0.27829632690687145
-0.4937558020000026	-0.26764302086695557
-0.4936947668437526	-0.25689012197037536
-0.4936337316875026	-0.24595365238512146
-0.4935726965312526	-0.2348509561190753
-0.4935116613750026	-0.22368333898856094
-0.4934506262187526	-0.21251314355457523
-0.4933895910625026	-0.20129154239385516
-0.4933285559062526	-0.1899273671205031
-0.4932675207500026	-0.1784085729948572
-0.4932064855937526	-0.16682266599951323
-0.4931454504375026	-0.15525121875531855
-0.4930844152812526	-0.14367279054307908
-0.4930233801250026	-0.13199706369251654
-0.4929623449687526	-0.12018590295369094
-0.4929013098125026	-0.10830724647650272
-0.4928402746562526	-0.09645448251302247
-0.4927792395000026	-0.08463460135183579
-0.4927182043437526	-0.0727662281582816
-0.4926571691875026	-0.060789099730263745
-0.4925961340312526	-0.04874657690420397
-0.4925350988750026	-0.03673690134310846
-0.4924740637187526	-0.024794916196965826
-0.4924130285625026	-0.012854496833361371
-0.4923519934062526	-0.0008390336927792688
-0.4922909582500026	0.011235323005385768
-0.4922299230937526	0.023274074967207795
-0.4921688879375026	0.0352177426637133
-0.4921078527812526	0.047110801626143624
-0.4920468176250026	0.059038850299174994
-0.4919857824687526	0.07101358035818343
-0.4919247473125026	0.0829515593297168
-0.4918637121562526	0.09477377954831924
-0.4918026770000026	0.10649970441744308
-0.4917416418437526	0.11821640492430212
-0.4916806066875026	0.12996165596226783
-0.4916195715312526	0.1416693206089367
-0.4915585363750026	0.1532468357908802
-0.4914975012187526	0.16468694185760502
-0.4914364660625026	0.17607140093040713
-0.4913754309062526	0.1874611210635007
-0.4913143957500026	0.19881200976761187
-0.4912533605937526	0.21002403550446067
-0.4911923254375026	0.22106230206371189
-0.4911312902812526	0.23199635908144095
-0.4910702551250026	0.2429065688139056
-0.4910092199687526	0.25377584443355483
-0.4909481848125026	0.26450449795545417
-0.4908871496562526	0.2750304406141981
-0.4908261145000026	0.2854031306856495
-0.4907650793437526	0.2957163720653037
-0.4907040441875026	0.30598356698157725
-0.4906430090312526	0.3161137829459513
-0.4905819738750026	0.3260207150490443
-0.4905209387187526	0.3357276268210099
-0.4904599035625026	0.34533410052673424
-0.4903988684062526	0.35488471037571157
-0.4903378332500026	0.3643058407110038
-0.4902767980937526	0.37349245711296497
-0.4902157629375026	0.38243669517794665
-0.4901547277812526	0.3912349855942734
-0.4900936926250026	0.39996214552412923
-0.4900326574687526	0.408570288488353
-0.4899716223125026	0.4169424440254781
-0.4899105871562526	0.4250360934641294
-0.4898495520000026	0.4329348459551597
-0.4897885168437526	0.44073979850724604
-0.4897274816875026	0.44843613664677323
-0.4896664465312526	0.4559052862373097
-0.4896054113750026	0.4630702047742378
-0.4895443762187526	0.4699908305224554
-0.4894833410625026	0.4767866319101893
-0.4894223059062526	0.48348133327786025
-0.4893612707500026	0.48996634734653144
-0.4893002355937526	0.49613274092401094
-0.4892392004375026	0.5020073479172524
-0.4891781652812526	0.507718596125216
-0.4891171301250026	0.5133312666997545
-0.4890560949687526	0.5187587105422699
-0.4889950598125026	0.5238669039434678
-0.4889340246562526	0.5286418238195469
-0.4888729895000026	0.5332076129323583
-0.4888119543437526	0.5376686079202437
-0.4887509191875026	0.5419727635305169
-0.4886898840312526	0.5459717246001993
-0.4886288488750026	0.5496057934936864
-0.4885678137187526	0.5529803634753473
-0.4885067785625026	0.5562332126764502
-0.4884457434062526	0.5593571396277188
-0.4883847082500026	0.5622038428413939
-0.4883236730937526	0.5646684317175578
-0.4882626379375026	0.5668228087906756
-0.4882016027812526	0.568826443235096
-0.4881405676250026	0.5707235462961532
-0.4880795324687526	0.5723828953526466
-0.4880184973125026	0.5736602759892814
-0.4879574621562526	0.5745812717380858
-0.4878964270000026	0.5753115326426854
-0.4878353918437526	0.5759478452200247
-0.4877743566875026	0.5763928373946615
-0.4877133215312526	0.5764747928416347
-0.4876522863750026	0.5761646487172035
-0.4875912512187526	0.5756155536760306
-0.4875302160625026	0.5749713251640857
-0.4874691809062526	0.5741835012003157
-0.4874081457500026	0.5730699882787351
-0.4873471105937526	0.5715447649956367
-0.4872860754375026	0.5697292132694735
-0.4872250402812526	0.5678017427413227
-0.4871640051250026	0.5657729629824773
-0.4871029699687526	0.5634708640491255
-0.4870419348125026	0.560757684909542
-0.4869808996562526	0.557706229353447
-0.4869198645000026	0.5545113697842966
-0.4868588293437526	0.5512459392467502
-0.4867977941875026	0.547768900443408
-0.4867367590312526	0.5439036880791744
-0.4866757238750026	0.5396631643673446
-0.4866146887187526	0.535236679765245
-0.4865536535625026	0.5307539655498447
-0.4864926184062526	0.5261231413796481
-0.4864315832500026	0.5211480130761916
-0.4863705480937526	0.5157778116248405
-0.4863095129375026	0.5101744170114354
-0.4862484777812526	0.5045113918654599
-0.4861874426250026	0.49875785078741136
-0.4861264074687526	0.4927201481656319
-0.4860653723125026	0.48628912165852173
-0.4860043371562526	0.4795808213876365
-0.4859433020000026	0.47279327620454786
-0.4858822668437526	0.46596035011327586
-0.4858212316875026	0.45891299017209075
-0.4857601965312526	0.45149636707427643
-0.4856991613750026	0.44376859088175985
-0.4856381262187526	0.4359303072757369
-0.4855770910625026	0.42807528605209766
-0.4855160559062526	0.420077429079696
-0.4854550207500026	0.4117552544430614
-0.4853939855937526	0.4031047321486493
-0.4853329504375026	0.39430718001066795
-0.4852719152812526	0.3855040058931048
-0.4852108801250026	0.37662376866630237
-0.4851498449687526	0.3674789017378485
-0.4850888098125026	0.3580075308074725
-0.4850277746562526	0.34835454565625706
-0.4849667395000026	0.3386920931738335
-0.4849057043437526	0.32900821961094107
-0.4848446691875026	0.31912932864386145
-0.4847836340312526	0.30894537079764445
-0.4847225988750026	0.298552440610058
-0.4846615637187526	0.2881345977049354
-0.4846005285625026	0.27773676623238086
-0.4845394934062526	0.2672156335854259
-0.4844784582500026	0.2564281404852931
-0.4844174230937526	0.24541719481517726
-0.4843563879375026	0.2343604941886133
-0.4842953527812526	0.22335052547016887
-0.4842343176250026	0.21228561987637007
-0.4841732824687526	0.20100708681458065
-0.4841122473125026	0.18950558364827344
-0.4840512121562526	0.17793618079991844
-0.4839901770000026	0.16642656553574467
-0.4839291418437526	0.15492291251510876
-0.4838681066875026	0.1432667747278866
-0.4838070715312526	0.1314026717921471
-0.4837460363750026	0.11945249790240496
-0.4836850012187526	0.10756519009182482
-0.4836239660625026	0.09573515789477388
-0.4835629309062526	0.08381828434248259
-0.4835018957500026	0.07172193321675524
-0.4834408605937526	0.059527271618640035
-0.4833798254375026	0.04739061921891366
-0.4833187902812526	0.03535151611953299
-0.4832577551250026	0.023291338173826975
-0.4831967199687526	0.011092224589234152
-0.4831356848125026	-0.0012077686715937922
-0.4830746496562526	-0.013459042130179788
-0.4830136145000026	-0.02558447253329441
-0.4829525793437526	-0.03766871494069713
-0.4828915441875026	-0.04984238962252042
-0.4828305090312526	-0.06211015391121308
-0.4827694738750026	-0.07434007150728095
-0.4827084387187526	-0.0864254743386918
-0.4826474035625026	-0.09841258976181659
-0.4825863684062526	-0.11043359891465795
-0.4825253332500026	-0.12253234329457496
-0.4824642980937526	-0.13460367771103263
-0.4824032629375026	-0.14652146872941607
-0.4823422277812526	-0.15829165065529624
-0.4822811926250026	-0.17003668096246236
-0.4822201574687526	-0.18183280962812357
-0.4821591223125026	-0.19360797258821
-0.4820980871562526	-0.20522865883063365
-0.4820370520000026	-0.21666308522317304
-0.4819760168437526	-0.22801358428720409
-0.4819149816875026	-0.23937932911639095
-0.4818539465312526	-0.2507249327618065
-0.4817929113750026	-0.2619206434906299
-0.4817318762187526	-0.2729012406244532
-0.4816708410625026	-0.28374149546009425
-0.4816098059062526	-0.2945540677070313
-0.4815487707500026	-0.30534116789024124
-0.4814877355937526	-0.3159873995160909
-0.4814267004375026	-0.3264006709333004
-0.4813656652812526	-0.3366221350219204
-0.4813046301250026	-0.34676715912385186
-0.4812435949687526	-0.35687333444360914
-0.4811825598125026	-0.36684830128882245
-0.4811215246562526	-0.3765823536248725
-0.4810604895000026	-0.38608177657056214
-0.4809994543437526	-0.395454205111064
-0.4809384191875026	-0.40476628025853545
-0.4808773840312526	-0.41395497243942253
-0.4808163488750026	-0.4229036917840077
-0.4807553137187526	-0.43158495060957913
-0.4806942785625026	-0.44008893339408
-0.4806332434062526	-0.4485035045169818
-0.4805722082500026	-0.45679882505959196
-0.4805111730937526	-0.46486178389977306
-0.4804501379375026	-0.4726349493799479
-0.4803891027812526	-0.48018393119179636
-0.4803280676250026	-0.48760899066574964
-0.4802670324687526	-0.49491402785195954
-0.4802059973125026	-0.5019987411643678
-0.4801449621562526	-0.5087822690622519
-0.4800839270000026	-0.5153009278003601
-0.4800228918437526	-0.5216572777116194
-0.4799618566875026	-0.5278863557483533
-0.4799008215312526	-0.5339086908608784
-0.4798397863750026	-0.5396283942226273
-0.4797787512187526	-0.5450509096013249
-0.4797177160625026	-0.5502717484936976
-0.4796566809062526	-0.5553519453499022
-0.4795956457500026	-0.560238615385613
-0.4795346105937526	-0.5648301894251639
-0.4794735754375026	-0.5691022672126648
-0.4794125402812526	-0.5731348414873507
-0.4793515051250026	-0.5770077556821134
-0.4792904699687526	-0.5806975427433666
-0.4792294348125026	-0.5841058363890623
-0.4791683996562526	-0.5871823094943902
-0.4791073645000026	-0.5899858848213382
-0.4790463293437526	-0.5926074140770237
-0.4789852941875026	-0.5950528730260896
-0.4789242590312526	-0.5972349421474382
-0.4788632238750026	-0.5990826453898619
-0.4788021887187526	-0.600629706907205
-0.4787411535625026	-0.6019700958104048
-0.4786801184062526	-0.6031376976160394
-0.4786190832500026	-0.6040627995167726
-0.4785580480937526	-0.6046601047455532
-0.4784970129375026	-0.6049361606910352
-0.4784359777812526	-0.6049801658773892
-0.4783749426250026	-0.6048503862949619
-0.4783139074687526	-0.6045002593789888
-0.4782528723125026	-0.6038375337922152
-0.4781918371562526	-0.6028413493952273
-0.4781308020000026	-0.6015888785906615
-0.4780697668437526	-0.6001577053560195
-0.4780087316875026	-0.5985276811225148
-0.4779476965312526	-0.5966069432615824
-0.4778866613750026	-0.5943494187140848
-0.4778256262187526	-0.5918145831280711
-0.4777645910625026	-0.5890931242019336
-0.4777035559062526	-0.5861926440143389
-0.4776425207500026	-0.5830287564005174
-0.4775814855937526	-0.5795335132396526
-0.4775204504375026	-0.5757438717019357
-0.4774594152812526	-0.5717572238537599
-0.4773983801250026	-0.567609446022223
-0.4773373449687526	-0.5632303556675177
-0.4772763098125026	-0.55853431411084
-0.4772152746562526	-0.5535317172860522
-0.4771542395000026	-0.5483192239829002
-0.4770932043437526	-0.5429599476275214
-0.4770321691875026	-0.5374050546861603
-0.4769711340312526	-0.5315571930519342
-0.4769100988750026	-0.525397032360999
-0.4768490637187526	-0.5190123704811939
-0.4767880285625026	-0.5124908973211554
-0.4767269934062526	-0.5058113082121852
-0.4766659582500026	-0.4988720020344391
-0.4766049230937526	-0.49162311184747676
-0.4765438879375026	-0.4841347836731435
-0.4764828527812526	-0.4765133835007285
-0.4764218176250026	-0.46877007664122883
-0.4763607824687526	-0.46080869605384184
-0.4762997473125026	-0.4525507221491721
-0.4762387121562526	-0.44404049405630214
-0.4761776770000026	-0.4353955789831031
-0.4761166418437526	-0.4266622517840338
-0.4760556066875026	-0.4177589292499402
-0.4759945715312526	-0.40858216993585866
-0.4759335363750026	-0.3991434978313377
-0.4758725012187526	-0.3895623838690698
-0.4758114660625026	-0.37992078774674104
-0.4757504309062526	-0.3701625056299726
-0.4756893957500026	-0.36016699488274706
-0.4756283605937526	-0.34990706840262265
-0.4755673254375026	-0.33949135742798386
-0.4755062902812526	-0.32903440013648094
-0.4754452551250026	-0.318515483522954
-0.4753842199687526	-0.3078068963327379
-0.4753231848125026	-0.29684054165868434
-0.4752621496562526	-0.28570276257332405
-0.4752011145000026	-0.2745335901274442
-0.4751400793437526	-0.26335461380977077
-0.4750790441875026	-0.25204415886495224
-0.4750180090312526	-0.2404953544198185
-0.4749569738750026	-0.22875951099914266
-0.4748959387187526	-0.21699084241029154
-0.4748349035625026	-0.20525809635311895
-0.4747738684062526	-0.1934605591433066
-0.4747128332500026	-0.18145860475977094
-0.4746517980937526	-0.16925774303522206
-0.4745907629375026	-0.15701208060395763
-0.4745297277812526	-0.14483750310701246
-0.4744686926250026	-0.13266879207264387
-0.4744076574687526	-0.12034513553304958
-0.4743466223125026	-0.10782002906490824
-0.4742855871562526	-0.09522994135404032
-0.4742245520000026	-0.08273117753892889
-0.4741635168437526	-0.07030771033396149
-0.4741024816875026	-0.05779427494493272
-0.4740414465312526	-0.045090569780119744
-0.4739804113750026	-0.03229740222495005
-0.4739193762187526	-0.019599166331122526
-0.4738583410625026	-0.007037499067188107
-0.4737973059062526	0.00553767613011516
-0.4737362707500026	0.018274062731465195
-0.4736752355937526	0.03112216705341379
-0.4736142004375026	0.04388774761270919
-0.4735531652812526	0.0564694743023128
-0.4734921301250026	0.0689825439815078
-0.4734310949687526	0.08160901447272209
-0.4733700598125026	0.09436080600786473
-0.4733090246562526	0.10705509121934392
-0.4732479895000026	0.11953648289003403
-0.4731869543437526	0.13186776977252213
-0.4731259191875026	0.1442466637538734
-0.4730648840312526	0.1567501179196596
-0.4730038488750026	0.16922866452573654
-0.4729428137187526	0.18148686410919943
-0.4728817785625026	0.19352359028874852
-0.4728207434062526	0.20552825116887016
-0.4727597082500026	0.2176361945836873
-0.4726986730937526	0.22975088698398888
-0.4726376379375026	0.2416578808105869
-0.4725766027812526	0.25328835176923586
-0.4725155676250026	0.2648003490451373
-0.4724545324687526	0.276374150572968
-0.4723934973125026	0.28797860987580054
-0.4723324621562526	0.29940362503355206
-0.4722714270000026	0.3105186601354988
-0.4722103918437526	0.3214311410478675
-0.4721493566875026	0.33234486636559074
-0.4720883215312526	0.3432973611569989
-0.4720272863750026	0.3541071674741798
-0.4719662512187526	0.36459689301358406
-0.4719052160625026	0.3748106324088625
-0.4718441809062526	0.3849519493279134
-0.4717831457500026	0.39512127544944553
-0.4717221105937526	0.4051846391745151
-0.4716610754375026	0.41493851376391144
-0.4716000402812526	0.424360866414311
-0.4715390051250026	0.4336318457657347
-0.4714779699687526	0.4429004629959287
-0.4714169348125026	0.4520927837737015
-0.4713558996562526	0.4610020446346138
-0.4712948645000026	0.46954483008665693
-0.4712338293437526	0.4778596108177707
-0.4711727941875026	0.4861253973385175
-0.4711117590312526	0.4943319532686382
-0.4710507238750026	0.502290801121365
-0.4709896887187526	0.5098698369720701
-0.4709286535625026	0.5171540769844586
-0.4708676184062526	0.524331661533797
-0.4708065832500026	0.5314520926875879
-0.4707455480937526	0.5383622486866567
-0.4706845129375026	0.5448979083835068
-0.4706234777812526	0.5510865201100565
-0.4705624426250026	0.5571060911320764
-0.4705014074687526	0.5630554269874006
-0.4704403723125026	0.568828021866914
-0.4703793371562526	0.5742464703325894
-0.4703183020000026	0.5792835564460249
-0.4702572668437526	0.584090687750405
-0.4701962316875026	0.5888014994094429
-0.4701351965312526	0.5933614673593799
-0.4700741613750026	0.5975972842390771
-0.4700131262187526	0.6014345441319008
-0.4699520910625026	0.60498729953501
-0.4698910559062526	0.6084089275776446
-0.4698300207500026	0.6116962803569129
-0.4697689855937526	0.6146946505547493
-0.4697079504375026	0.6172935582105368
-0.4696469152812526	0.6195633661629935
-0.4695858801250026	0.6216618835499812
-0.4695248449687526	0.6236326615647256
