Time	Frequency
-0.500053404343749	3.557683224339865e-23
-0.499992369187499	3.5865459362084525e-23
-0.499931334031249	3.6141177233736754e-23
-0.499870298874999	3.640763126833637e-23
-0.499809263718749	3.666702307874244e-23
-0.499748228562499	3.691496014983893e-23
-0.499687193406249	3.71505706021917e-23
-0.499626158249999	3.737819866948304e-23
-0.499565123093749	3.7597137620652484e-23
-0.499504087937499	3.780328173573534e-23
-0.499443052781249	3.799847671693653e-23
-0.499382017624999	3.818596074537504e-23
-0.499320982468749	3.836281266921149e-23
-0.499259947312499	3.852671429154756e-23
-0.499198912156249	3.8681079132265386e-23
-0.499137876999999	3.882695466640332e-23
-0.499076841843749	3.896063165122823e-23
-0.499015806687499	3.9082160163338795e-23
-0.498954771531249	3.9194998081032476e-23
-0.498893736374999	3.92979494452728e-23
-0.498832701218749	3.938798928931802e-23
-0.498771666062499	3.9467120962077765e-23
-0.498710630906249	3.9537566980041933e-23
-0.498649595749999	3.959667623930874e-23
-0.498588560593749	3.964307909025822e-23
-0.498527525437499	3.967968010547515e-23
-0.498466490281249	3.9706863959571004e-23
-0.498405455124999	3.972171027454415e-23
-0.498344419968749	3.972472544810052e-23
-0.498283384812499	3.971853070879703e-23
-0.498222349656249	3.9701828518061083e-23
-0.498161314499999	3.9672506521136017e-23
-0.498100279343749	3.963245475270622e-23
-0.498039244187499	3.958312094686208e-23
-0.497978209031249	3.952226871388708e-23
-0.497917173874999	3.944922858460962e-23
-0.497856138718749	3.9366380590636295e-23
-0.497795103562499	3.927366096453699e-23
-0.497734068406249	3.916885360335639e-23
-0.497673033249999	3.905277023534845e-23
-0.497611998093749	3.892733361607765e-23
-0.497550962937499	3.879121468079732e-23
-0.497489927781249	3.8643067530692075e-23
-0.497428892624999	3.848468103416409e-23
-0.497367857468749	3.831685699287361e-23
-0.497306822312499	3.813770727591224e-23
-0.497245787156249	3.7947168848635244e-23
-0.497184751999999	3.7747181453948556e-23
-0.497123716843749	3.75372746781142e-23
-0.497062681687499	3.7315847450437854e-23
-0.497001646531249	3.708402556965039e-23
-0.496940611374999	3.684312579370419e-23
-0.496879576218749	3.6591740984069713e-23
-0.496818541062499	3.6329207529227034e-23
-0.496757505906249	3.60572828174317e-23
-0.496696470749999	3.5776170066478763e-23
-0.496635435593749	3.548423628629609e-23
-0.496574400437499	3.5182016693535796e-23
-0.496513365281249	3.4871107797079704e-23
-0.496452330124999	3.455060790973296e-23
-0.496391294968749	3.421945144810141e-23
-0.496330259812499	3.3879118173420497e-23
-0.496269224656249	3.353035570407003e-23
-0.496208189499999	3.317161907143292e-23
-0.496147154343749	3.280291714908432e-23
-0.496086119187499	3.242604205867966e-23
-0.496025084031249	3.2040597107296497e-23
-0.495964048874999	3.1645143463556364e-23
-0.495903013718749	3.124081116622718e-23
-0.495841978562499	3.0828888483401455e-23
-0.495780943406249	3.040803451755351e-23
-0.495719908249999	2.997768800602366e-23
-0.495658873093749	2.9539675017246845e-23
-0.495597837937499	2.909419903633871e-23
-0.495536802781249	2.8639627638816774e-23
-0.495475767624999	2.817662078075485e-23
-0.495414732468749	2.7706887919695437e-23
-0.495353697312499	2.722944323031375e-23
-0.495292662156249	2.6743179967294294e-23
-0.495231626999999	2.6249771948074043e-23
-0.495170591843749	2.575007210545712e-23
-0.495109556687499	2.524241843523223e-23
-0.495048521531249	2.4726845688112783e-23
-0.494987486374999	2.420533822226716e-23
-0.494926451218749	2.3677482199480628e-23
-0.494865416062499	2.3141746115775987e-23
-0.494804380906249	2.2599457736326114e-23
-0.494743345749999	2.2052073768810644e-23
-0.494682310593749	2.1498067924772142e-23
-0.494621275437499	2.0936813850060443e-23
-0.494560240281249	2.0370407688933343e-23
-0.494499205124999	1.9799094371977487e-23
-0.494438169968749	1.922104322113675e-23
-0.494377134812499	1.8637065782141027e-23
-0.494316099656249	1.8049117009293567e-23
-0.494255064499999	1.7456018846195785e-23
-0.494194029343749	1.6856556012513705e-23
-0.494132994187499	1.6252746855244892e-23
-0.494071959031249	1.5645514251875012e-23
-0.494010923874999	1.5032886867264612e-23
-0.493949888718749	1.4415032152187488e-23
-0.493888853562499	1.379426576495976e-23
-0.493827818406249	1.316993201343343e-23
-0.493766783249999	1.2540297688604196e-23
-0.493705748093749	1.1907118759209185e-23
-0.493644712937499	1.1271979887086699e-23
-0.493583677781249	1.063290134672569e-23
-0.493522642624999	9.989372231813796e-24
-0.493461607468749	9.344024743989234e-24
-0.493400572312499	8.69683647822282e-24
-0.493339537156249	8.045523803775342e-24
-0.493278501999999	7.391371344637754e-24
-0.493217466843749	6.73669842735787e-24
-0.493156431687499	6.0797562251381435e-24
-0.493095396531249	5.419219948381733e-24
-0.493034361374999	4.7578437428539485e-24
-0.492973326218749	4.096417246977097e-24
-0.492912291062499	3.4321748451059595e-24
-0.492851255906249	2.7657439902194307e-24
-0.492790220749999	2.1002544667470967e-24
-0.492729185593749	1.434349630719408e-24
-0.492668150437499	7.656947123631621e-25
-0.492607115281249	9.70147841014619e-26
-0.492546080124999	-5.698244310276089e-25
-0.492485044968749	-1.2379367083746175e-24
-0.492424009812499	-1.9076679228925405e-24
-0.492362974656249	-2.5751705556612692e-24
-0.492301939499999	-3.2410806835513242e-24
-0.492240904343749	-3.9087816931196586e-24
-0.492179869187499	-4.575890326319625e-24
-0.492118834031249	-5.2392522678655675e-24
-0.492057798874999	-5.902112906214166e-24
-0.491996763718749	-6.5661746021268966e-24
-0.491935728562499	-7.226912849560418e-24
-0.491874693406249	-7.883728511426461e-24
-0.491813658249999	-8.541217537167093e-24
-0.491752623093749	-9.197941899613094e-24
-0.491691587937499	-9.849128396495354e-24
-0.491630552781249	-1.0497550960818042e-23
-0.491569517624999	-1.1146778180765362e-23
-0.491508482468749	-1.179216021138824e-23
-0.491447447312499	-1.2431192671189278e-23
-0.491386412156249	-1.3069267261205322e-23
-0.491325376999999	-1.3706672551800184e-23
-0.491264341843749	-1.4337201401227693e-23
-0.491203306687499	-1.4962342936375325e-23
-0.491142271531249	-1.5587662915099423e-23
-0.491081236374999	-1.6209169011006623e-23
-0.491020201218749	-1.6821998961110404e-23
-0.490959166062499	-1.743167950470786e-23
-0.490898130906249	-1.8040983593918685e-23
-0.490837095749999	-1.8642720993371176e-23
-0.490776060593749	-1.9236101369535333e-23
-0.490715025437499	-1.982855766783399e-23
-0.490653990281249	-2.041791342478231e-23
-0.490592955124999	-2.0996719819558117e-23
-0.490531919968749	-2.156945045666595e-23
-0.490470884812499	-2.21419571253161e-23
-0.490409849656249	-2.2707140572167448e-23
-0.490348814499999	-2.3260976822703765e-23
-0.490287779343749	-2.381193097551486e-23
-0.490226744187499	-2.4360926963875096e-23
-0.490165709031249	-2.4898436160007073e-23
-0.490104673874999	-2.542639029366445e-23
-0.490043638718749	-2.5953683245797935e-23
-0.489982603562499	-2.647489110215259e-23
-0.489921568406249	-2.6982246247450594e-23
-0.489860533249999	-2.748368857322392e-23
-0.489799498093749	-2.7984288854541713e-23
-0.489738462937499	-2.847379802790716e-23
-0.489677427781249	-2.895006854581682e-23
-0.489616392624999	-2.9424066103643284e-23
-0.489555357468749	-2.989403152597206e-23
-0.489494322312499	-3.034893616246959e-23
-0.489433287156249	-3.0793907031135685e-23
-0.489372251999999	-3.123826197145463e-23
-0.489311216843749	-3.167341759459567e-23
-0.489250181687499	-3.2092385613581756e-23
-0.489189146531249	-3.250591127616534e-23
-0.489128111374999	-3.291733658779909e-23
-0.489067076218749	-3.3314384730414275e-23
-0.489006041062499	-3.36973487499493e-23
-0.488945005906249	-3.407828727326859e-23
-0.488883970749999	-3.4452773982696927e-23
-0.488822935593749	-3.48098231336195e-23
-0.488761900437499	-3.51571678690243e-23
-0.488700865281249	-3.550315193609296e-23
-0.488639830124999	-3.5837139102958465e-23
-0.488578794968749	-3.6153913134269076e-23
-0.488517759812499	-3.64655062297224e-23
-0.488456724656249	-3.677310824021491e-23
-0.488395689499999	-3.70641917428096e-23
-0.488334654343749	-3.734132053721601e-23
-0.488273619187499	-3.761589285202038e-23
-0.488212584031249	-3.788161500303048e-23
-0.488151548874999	-3.81290475383256e-23
-0.488090513718749	-3.836715610343169e-23
-0.488029478562499	-3.860222343279655e-23
-0.487968443406249	-3.8823344805276864e-23
-0.487907408249999	-3.9027635890496156e-23
-0.487846373093749	-3.9226486323383105e-23
-0.487785337937499	-3.941901871351045e-23
-0.487724302781249	-3.959432416696779e-23
-0.487663267624999	-3.975652485201341e-23
-0.487602232468749	-3.99147449955719e-23
-0.487541197312499	-4.006203456358146e-23
-0.487480162156249	-4.019168425961661e-23
-0.487419126999999	-4.031238967442155e-23
-0.487358091843749	-4.0427762932591036e-23
-0.487297056687499	-4.052824484124671e-23
-0.487236021531249	-4.061332649420451e-23
-0.487174986374999	-4.0692237309560465e-23
-0.487113951218749	-4.076246024121644e-23
-0.487052916062499	-4.081593256770706e-23
-0.486991880906249	-4.0857576962525416e-23
-0.486930845749999	-4.089345195599958e-23
-0.486869810593749	-4.091689780840607e-23
-0.486808775437499	-4.0924272379256366e-23
-0.486747740281249	-4.0923056636089856e-23
-0.486686705124999	-4.091426686944938e-23
-0.486625669968749	-4.0890456326593386e-23
-0.486564634812499	-4.0853091238870036e-23
-0.486503599656249	-4.0808778498009386e-23
-0.486442564499999	-4.0753968220545837e-23
-0.486381529343749	-4.068355840617292e-23
-0.486320494187499	-4.060263438822269e-23
-0.486259459031249	-4.051441574447297e-23
-0.486198423874999	-4.04130393828747e-23
-0.486137388718749	-4.0297425102904466e-23
-0.486076353562499	-4.0173578989358584e-23
-0.486015318406249	-4.0040599052903706e-23
-0.485954283249999	-3.989310930692667e-23
-0.485893248093749	-3.9733836924002395e-23
-0.485832212937499	-3.956711964295208e-23
-0.485771177781249	-3.9389000896530466e-23
-0.485710142624999	-3.919671776579933e-23
-0.485649107468749	-3.8995080814422027e-23
-0.485588072312499	-3.8785277840467536e-23
-0.485527037156249	-3.856241251236432e-23
-0.485466001999999	-3.832706304835802e-23
-0.485404966843749	-3.808389284187791e-23
-0.485343931687499	-3.7830984990381e-23
-0.485282896531249	-3.7564610700865795e-23
-0.485221861374999	-3.728796024268717e-23
-0.485160826218749	-3.700376900713769e-23
-0.485099791062499	-3.670826057701395e-23
-0.485038755906249	-3.640015687480721e-23
-0.484977720749999	-3.608366189228707e-23
-0.484916685593749	-3.5758875841321815e-23
-0.484855650437499	-3.542193941496453e-23
-0.484794615281249	-3.5074172078485124e-23
-0.484733580124999	-3.4719069616578925e-23
-0.484672544968749	-3.435447556123495e-23
-0.484611509812499	-3.39779070009901e-23
-0.484550474656249	-3.3592427648639845e-23
-0.484489439499999	-3.319971555352892e-23
-0.484428404343749	-3.279655287767566e-23
-0.484367369187499	-3.238254471980707e-23
-0.484306334031249	-3.1961128564720375e-23
-0.484245298874999	-3.153189558559657e-23
-0.484184263718749	-3.1091960439368344e-23
-0.484123228562499	-3.064286480209031e-23
-0.484062193406249	-3.0187159576214565e-23
-0.484001158249999	-2.97228581796769e-23
-0.483940123093749	-2.9248395565018146e-23
-0.483879087937499	-2.8766417222180035e-23
-0.483818052781249	-2.8277901877782143e-23
-0.483757017624999	-2.7780338885896883e-23
-0.483695982468749	-2.7273884747925276e-23
-0.483634947312499	-2.676120664421978e-23
-0.483573912156249	-2.6241635870127073e-23
-0.483512876999999	-2.5713128997318822e-23
-0.483451841843749	-2.517727306011523e-23
-0.483390806687499	-2.4635840937965353e-23
-0.483329771531249	-2.408707867814375e-23
-0.483268736374999	-2.353019873734788e-23
-0.483207701218749	-2.2967500253874665e-23
-0.483146666062499	-2.239936217052862e-23
-0.483085630906249	-2.1823808252380353e-23
-0.483024595749999	-2.1241450218199807e-23
-0.482963560593749	-2.065433191481533e-23
-0.482902525437499	-2.0061560730371494e-23
-0.482841490281249	-1.946181848073983e-23
-0.482780455124999	-1.885676663438024e-23
-0.482719419968749	-1.8247527370726367e-23
-0.482658384812499	-1.7632535963959344e-23
-0.482597349656249	-1.7011638062686176e-23
-0.482536314499999	-1.638677595336703e-23
-0.482475279343749	-1.5757786353128294e-23
-0.482414244187499	-1.5123210936210066e-23
-0.482353209031249	-1.4484128876207898e-23
-0.482292173874999	-1.3842022986944048e-23
-0.482231138718749	-1.3195746669205356e-23
-0.482170103562499	-1.2544658954481445e-23
-0.482109068406249	-1.1890521603256226e-23
-0.482048033249999	-1.1233753555024581e-23
-0.481986998093749	-1.0572867241098391e-23
-0.481925962937499	-9.908408327708578e-24
-0.481864927781249	-9.242129918914068e-24
-0.481803892624999	-8.573290686466709e-24
-0.481742857468749	-7.900800878833877e-24
-0.481681822312499	-7.22623637420246e-24
-0.481620787156249	-6.550593699763529e-24
-0.481559751999999	-5.8723724144796064e-24
-0.481498716843749	-5.1915213961422145e-24
-0.481437681687499	-4.509998351019765e-24
-0.481376646531249	-3.827621989001938e-24
-0.481315611374999	-3.142947152089386e-24
-0.481254576218749	-2.457121283605115e-24
-0.481193541062499	-1.7716451708873174e-24
-0.481132505906249	-1.0852654698953144e-24
-0.481071470749999	-3.9735660802334974e-25
-0.481010435593749	2.90130031142171e-25
-0.480949400437499	9.767926123731748e-25
-0.480888365281249	1.6643012279877522e-24
-0.480827330124999	2.352045724870042e-24
-0.480766294968749	3.038110601255766e-24
-0.480705259812499	3.723317626221074e-24
-0.480644224656249	4.4088483718116404e-24
-0.480583189499999	5.092997047166459e-24
-0.480522154343749	5.774718809066251e-24
-0.480461119187499	6.4556713106631736e-24
-0.480400084031249	7.13587067321623e-24
-0.480339048874999	7.81315465295201e-24
-0.480278013718749	8.487828978824668e-24
-0.480216978562499	9.161576324197522e-24
-0.480155943406249	9.833066057684289e-24
-0.480094908249999	1.0500594698994215e-23
-0.480033873093749	1.1165640902187868e-23
-0.479972837937499	1.1828936657990428e-23
-0.479911802781249	1.2488277659969413e-23
-0.479850767624999	1.3143307024245874e-23
-0.479789732468749	1.3795980510083925e-23
-0.479728697312499	1.4445513232560515e-23
-0.479667662156249	1.508974851391574e-23
-0.479606626999999	1.5729822827265255e-23
-0.479545591843749	1.636708199625841e-23
-0.479484556687499	1.699943636806332e-23
-0.479423521531249	1.762585281090744e-23
-0.479362486374999	1.824845081040866e-23
-0.479301451218749	1.8867101298473594e-23
-0.479240416062499	1.9479245844678308e-23
-0.479179380906249	2.0085529198071394e-23
-0.479118345749999	2.0687927087854436e-23
-0.479057310593749	2.1284646695578055e-23
-0.478996275437499	2.187391578866873e-23
-0.478935240281249	2.2457832359273385e-23
-0.478874205124999	2.3037041785321903e-23
-0.478813169968749	2.36087193265699e-23
-0.478752134812499	2.4172851557872562e-23
-0.478691099656249	2.4732020849857887e-23
-0.478630064499999	2.5284902977677657e-23
-0.478569029343749	2.5828888429158284e-23
-0.478507994187499	2.6365952337063926e-23
-0.478446959031249	2.68977322159259e-23
-0.478385923874999	2.7421175263746547e-23
-0.478324888718749	2.793533572942428e-23
-0.478263853562499	2.844342126230676e-23
-0.478202818406249	2.8944872479924533e-23
-0.478141783249999	2.9436166128294313e-23
-0.478080748093749	2.991885796189055e-23
-0.478019712937499	3.039574236639157e-23
-0.477958677781249	3.086380022766512e-23
-0.477897642624999	3.1320872092432754e-23
-0.477836607468749	3.1770638455135877e-23
-0.477775572312499	3.2213714513807375e-23
-0.477714537156249	3.2645660233979835e-23
-0.477653501999999	3.306714467976458e-23
-0.477592466843749	3.348232512958146e-23
-0.477531431687499	3.3888679134151565e-23
-0.477470396531249	3.428243461560182e-23
-0.477409361374999	3.4667356763131216e-23
-0.477348326218749	3.504580209216273e-23
-0.477287291062499	3.541265948908103e-23
-0.477226255906249	3.5767016860307555e-23
-0.477165220749999	3.611435670006376e-23
-0.477104185593749	3.645342445395351e-23
-0.477043150437499	3.677863840960853e-23
-0.476982115281249	3.7093089967754323e-23
-0.476921080124999	3.7401329475532085e-23
-0.476860044968749	3.769824186389767e-23
-0.476799009812499	3.7980646512429174e-23
-0.476737974656249	3.825487832463266e-23
-0.476676939499999	3.85218387272753e-23
-0.476615904343749	3.8774325906186246e-23
-0.476554869187499	3.901375104480619e-23
-0.476493834031249	3.9247024796450173e-23
-0.476432798874999	3.947004701788883e-23
-0.476371763718749	3.9676822771241263e-23
-0.476310728562499	3.987362692743533e-23
-0.476249693406249	4.006442080170939e-23
-0.476188658249999	4.0241077351969376e-23
-0.476127623093749	4.040213500660187e-23
-0.476066587937499	4.0556509842956194e-23
-0.476005552781249	4.0702522521152734e-23
-0.475944517624999	4.0831294320145836e-23
-0.475883482468749	4.0947540155504494e-23
-0.475822447312499	4.10588342981302e-23
-0.475761412156249	4.115756936648901e-23
-0.475700376999999	4.123835752373443e-23
-0.475639341843749	4.131089350013189e-23
-0.475578306687499	4.137743387963614e-23
-0.475517271531249	4.142707063378547e-23
-0.475456236374999	4.146108558878393e-23
-0.475395201218749	4.149032782560226e-23
-0.475334166062499	4.150980725743101e-23
-0.475273130906249	4.150993644275068e-23
-0.475212095749999	4.1499034687552404e-23
-0.475151060593749	4.1484224977732286e-23
-0.475090025437499	4.145459456103311e-23
-0.475028990281249	4.140641732230365e-23
-0.474967955124999	4.135211770265042e-23
-0.474906919968749	4.129147652318864e-23
-0.474845884812499	4.121189693309442e-23
-0.474784849656249	4.111771353649594e-23
-0.474723814499999	4.10203910557108e-23
-0.474662779343749	4.091189723627065e-23
-0.474601744187499	4.078325143747917e-23
-0.474540709031249	4.064551505856854e-23
-0.474479673874999	4.050429308821804e-23
-0.474418638718749	4.034673664121991e-23
-0.474357603562499	4.017137764106929e-23
-0.474296568406249	3.999167075630335e-23
-0.474235533249999	3.9804947873308447e-23
-0.474174498093749	3.9598720931934777e-23
-0.474113462937499	3.937968235417177e-23
-0.474052427781249	3.9158273047919063e-23
-0.473991392624999	3.892472285017237e-23
-0.473930357468749	3.867189132995584e-23
-0.473869322312499	3.841179696320741e-23
-0.473808287156249	3.814787930628205e-23
-0.473747251999999	3.786741521118727e-23
-0.473686216843749	3.7571160857849904e-23
-0.473625181687499	3.727151398470178e-23
-0.473564146531249	3.6964072939780957e-23
-0.473503111374999	3.663830838757097e-23
-0.473442076218749	3.630194704638572e-23
-0.473381041062499	3.596299230244408e-23
-0.473320005906249	3.5611691151548205e-23
-0.473258970749999	3.524357381257455e-23
-0.473197935593749	3.4869655523149857e-23
-0.473136900437499	3.4491023929000016e-23
-0.473075865281249	3.409699770582738e-23
-0.473014830124999	3.369012397189227e-23
-0.472953794968749	3.3280067279939e-23
-0.472892759812499	3.286159118843168e-23
-0.472831724656249	3.242738718143767e-23
-0.472770689499999	3.198503707184681e-23
-0.472709654343749	3.153936523920333e-23
-0.472648619187499	3.1081903195198113e-23
-0.472587584031249	3.061104172912347e-23
-0.472526548874999	3.0135599551243356e-23
-0.472465513718749	2.9654564082641406e-23
-0.472404478562499	2.916022413705502e-23
-0.472343443406249	2.8656358545901715e-23
-0.472282408249999	2.814935697694682e-23
-0.472221373093749	2.763385313466109e-23
-0.472160337937499	2.710585624216138e-23
-0.472099302781249	2.6572109349401e-23
-0.472038267624999	2.6034536233263587e-23
-0.471977232468749	2.5486430903951163e-23
-0.471916197312499	2.492849321309093e-23
-0.471855162156249	2.436719675749004e-23
-0.471794126999999	2.3800092721609027e-23
-0.471733091843749	2.32222163441269e-23
-0.471672056687499	2.263794326776188e-23
-0.471611021531249	2.2050922765082687e-23
-0.471549986374999	2.1456103357359964e-23
-0.471488951218749	2.0852030522270067e-23
-0.471427916062499	2.0244411773327774e-23
-0.471366880906249	1.9633145490963975e-23
-0.471305845749999	1.9013178671531432e-23
-0.471244810593749	1.838667858632217e-23
-0.471183775437499	1.7758207932509004e-23
-0.471122740281249	1.7124591865395795e-23
-0.471061705124999	1.6482859924688667e-23
-0.471000669968749	1.5837423049266364e-23
-0.470939634812499	1.5190120111087535e-23
