Time	Frequency
-0.5000154445937497	2.0410416229736447e-23
-0.4999544094374997	2.0975328510999034e-23
-0.4998933742812497	2.1526542042213385e-23
-0.4998323391249997	2.2079224359268144e-23
-0.4997713039687497	2.263572952125025e-23
-0.4997102688124997	2.318153303757694e-23
-0.4996492336562497	2.3710422776044345e-23
-0.4995881984999997	2.423479132258952e-23
-0.4995271633437497	2.4763563171839907e-23
-0.4994661281874997	2.5286619901788925e-23
-0.4994050930312497	2.5792473128017537e-23
-0.4993440578749997	2.6287878517691568e-23
-0.4992830227187497	2.678549711408815e-23
-0.4992219875624997	2.72816672461537e-23
-0.4991609524062497	2.776288200631167e-23
-0.4990999172499997	2.8229097778186984e-23
-0.4990388820937497	2.869323675088737e-23
-0.4989778469374997	2.9158354660335745e-23
-0.4989168117812497	2.961242204637457e-23
-0.4988557766249997	3.004923033548516e-23
-0.4987947414687497	3.047871382009316e-23
-0.4987337063124997	3.090920302203182e-23
-0.4986726711562497	3.1332913937178773e-23
-0.4986116359999997	3.1739576488803346e-23
-0.4985506008437497	3.2133982537038436e-23
-0.4984895656874997	3.252712663921131e-23
-0.4984285305312497	3.291692239110205e-23
-0.4983674953749997	3.329198013549137e-23
-0.4983064602187497	3.3651286414267215e-23
-0.4982454250624997	3.400546680549925e-23
-0.4981843899062497	3.435799414937387e-23
-0.4981233547499997	3.46992595126977e-23
-0.4980623195937497	3.5023314529840146e-23
-0.4980012844374997	3.5337813899181675e-23
-0.4979402492812497	3.565029373900587e-23
-0.4978792141249997	3.595508466025409e-23
-0.4978181789687497	3.624330343034878e-23
-0.4977571438124997	3.651806218280079e-23
-0.4976961086562497	3.678862303280292e-23
-0.4976350734999997	3.705416840699822e-23
-0.4975740383437497	3.7305372935600363e-23
-0.4975130031874997	3.754054536273465e-23
-0.4974519680312497	3.776817827260375e-23
-0.4973909328749997	3.799194128392509e-23
-0.4973298977187497	3.820442376627859e-23
-0.4972688625624997	3.840009215706159e-23
-0.4972078274062497	3.8584622356634147e-23
-0.4971467922499997	3.8764714852237136e-23
-0.4970857570937497	3.8936476294695104e-23
-0.4970247219374997	3.909233432715198e-23
-0.4969636867812497	3.923405270463978e-23
-0.4969026516249997	3.9369338596860096e-23
-0.4968416164687497	3.9498365947701373e-23
-0.4967805813124997	3.961364575766087e-23
-0.4967195461562497	3.971305257337367e-23
-0.4966585109999997	3.980324675138828e-23
-0.4965974758437497	3.9887918126012395e-23
-0.4965364406874997	3.9961491947924833e-23
-0.4964754055312497	4.0018931763484983e-23
-0.4964143703749997	4.006433243216509e-23
-0.4963533352187497	4.0103591655567206e-23
-0.4962923000624997	4.013420359590755e-23
-0.4962312649062497	4.0149776438405464e-23
-0.4961702297499997	4.015110111238391e-23
-0.4961091945937497	4.014458193502041e-23
-0.4960481594374997	4.013106907534052e-23
-0.4959871242812497	4.010453855269385e-23
-0.4959260891249997	4.0062636640932263e-23
-0.4958650539687497	4.0010652748392425e-23
-0.4958040188124997	3.9952234418633925e-23
-0.4957429836562497	3.988314956870649e-23
-0.4956819484999997	3.979879012234762e-23
-0.4956209133437497	3.970216819606855e-23
-0.4955598781874997	3.959858052448458e-23
-0.4954988430312497	3.9486435750099077e-23
-0.4954378078749997	3.936018615079555e-23
-0.4953767727187497	3.922006445619402e-23
-0.4953157375624997	3.907163532948735e-23
-0.4952547024062497	3.891610619367187e-23
-0.4951936672499997	3.874836570674533e-23
-0.4951326320937497	3.856604006843264e-23
-0.4950715969374997	3.837365264300285e-23
-0.4950105617812497	3.817472036962425e-23
-0.4949495266249997	3.796572065478949e-23
-0.4948884914687497	3.774242334701744e-23
-0.4948274563124997	3.750738956042122e-23
-0.4947664211562497	3.72655131677452e-23
-0.4947053859999997	3.7015516647075126e-23
-0.4946443508437497	3.6752356474685595e-23
-0.4945833156874997	3.6476252404327993e-23
-0.4945222805312497	3.619240314951819e-23
-0.4944612453749997	3.590190951060357e-23
-0.4944002102187497	3.559995512284536e-23
-0.4943391750624997	3.528446903252559e-23
-0.4942781399062497	3.4959943051627794e-23
-0.4942171047499997	3.4629609552730407e-23
-0.4941560695937497	3.4289839494448425e-23
-0.4940950344374997	3.393675103959065e-23
-0.4940339992812497	3.3573302972625916e-23
-0.4939729641249997	3.320420856347455e-23
-0.4939119289687497	3.282767298914533e-23
-0.4938508938124997	3.243872102474332e-23
-0.4937898586562497	3.203828171290761e-23
-0.4937288234999997	3.163178444324846e-23
-0.4936677883437497	3.1219636562583316e-23
-0.4936067531874997	3.079660602078783e-23
-0.4935457180312497	3.036137331857958e-23
-0.4934846828749997	2.991918938959134e-23
-0.4934236477187497	2.947269562463076e-23
-0.4933626125624997	2.901727786276808e-23
-0.4933015774062497	2.8549495652172547e-23
-0.4932405422499997	2.807361734274275e-23
-0.4931795070937497	2.7594304508610004e-23
-0.4931184719374997	2.710834294085132e-23
-0.4930574367812497	2.661048959548022e-23
-0.4929964016249997	2.6103223773101663e-23
-0.4929353664687497	2.559270493139193e-23
-0.4928743313124997	2.507787360606173e-23
-0.4928132961562497	2.4552386249407823e-23
-0.4927522609999997	2.401629663245841e-23
-0.4926912258437497	2.3476475449492002e-23
-0.4926301906874997	2.2934545638755714e-23
-0.4925691555312497	2.238394202132592e-23
-0.4925081203749997	2.1821897592925066e-23
-0.4924470852187497	2.125498417896997e-23
-0.4923860500624997	2.0687723202883102e-23
-0.4923250149062497	2.0114439096896497e-23
-0.4922639797499997	1.9529473431446268e-23
-0.4922029445937497	1.893786022476695e-23
-0.4921419094374997	1.8346917363292437e-23
-0.4920808742812497	1.775324399711451e-23
-0.4920198391249997	1.7148709367323342e-23
-0.4919588039687497	1.6535420184015267e-23
-0.4918977688124997	1.5922685355637625e-23
-0.4918367336562497	1.5310614838167914e-23
-0.4917756984999997	1.4689740004004446e-23
-0.4917146633437497	1.4058158337540627e-23
-0.4916536281874997	1.3425703437382824e-23
-0.4915925930312497	1.2796878645486085e-23
-0.4915315578749997	1.2162688155671069e-23
-0.4914705227187497	1.1516706592466524e-23
-0.4914094875624997	1.0867242821577963e-23
-0.4913484524062497	1.0223238683952693e-23
-0.4912874172499997	9.578327155469984e-24
-0.4912263820937497	8.921984880947896e-24
-0.4911653469374997	8.258784255124753e-24
-0.4911043117812497	7.601128428395214e-24
-0.4910432766249997	6.947430849613119e-24
-0.4909822414687497	6.284674269580261e-24
-0.4909212063124997	5.611810092268469e-24
-0.4908601711562497	4.94252292535398e-24
-0.4907991359999997	4.2814574297591134e-24
-0.4907381008437497	3.61577414091042e-24
-0.4906770656874997	2.9379233679621683e-24
-0.4906160305312497	2.2597896259787025e-24
-0.4905549953749997	1.592364031164482e-24
-0.4904939602187497	9.262505951929745e-25
-0.4904329250624997	2.4812864265385107e-25
-0.4903718899062497	-4.351145788746426e-25
-0.4903108547499997	-1.1076704988056116e-24
-0.4902498195937497	-1.7725043997533758e-24
-0.4901887844374997	-2.446353841879611e-24
-0.4901277492812497	-3.1299045401924402e-24
-0.4900667141249997	-3.8057349449633075e-24
-0.4900056789687497	-4.468565044720472e-24
-0.4899446438124997	-5.134711326328072e-24
-0.4898836086562497	-5.813268446650655e-24
-0.4898225734999997	-6.489376625096943e-24
-0.4897615383437497	-7.149718309402912e-24
-0.4897005031874997	-7.805910998155497e-24
-0.4896394680312497	-8.47413127950076e-24
-0.4895784328749997	-9.146165595601586e-24
-0.4895173977187497	-9.803117675154537e-24
-0.4894563625624997	-1.0448380242143959e-23
-0.4893953274062497	-1.1101760238003062e-23
-0.4893342922499997	-1.1764391744593837e-23
-0.4892732570937497	-1.2416081412046057e-23
-0.4892122219374997	-1.3050340061029849e-23
-0.4891511867812497	-1.3685734193069e-23
-0.4890901516249997	-1.4333164183563643e-23
-0.4890291164687497	-1.4976222633332194e-23
-0.4889680813124997	-1.5599453302062025e-23
-0.4889070461562497	-1.6215279736461892e-23
-0.4888460109999997	-1.684211500188081e-23
-0.4887849758437497	-1.7471718281047577e-23
-0.4887239406874997	-1.80831836549161e-23
-0.4886629055312497	-1.8679289451006788e-23
-0.4886018703749997	-1.9281454977981867e-23
-0.4885408352187497	-1.989194807589594e-23
-0.4884798000624997	-2.0489530000864693e-23
-0.4884187649062497	-2.1066312590730442e-23
-0.4883577297499997	-2.164132037419385e-23
-0.4882966945937497	-2.2226933815924786e-23
-0.4882356594374997	-2.2806942045482824e-23
-0.4881746242812497	-2.3364632635578577e-23
-0.4881135891249997	-2.3911731339265764e-23
-0.4880525539687497	-2.446757432481196e-23
-0.4879915188124997	-2.5025047622042504e-23
-0.4879304836562497	-2.556284127582013e-23
-0.4878694484999997	-2.6082416640383967e-23
-0.4878084133437497	-2.6605068462651436e-23
-0.4877473781874997	-2.713444214849768e-23
-0.4876863430312497	-2.7650054036873823e-23
-0.4876253078749997	-2.814289386810985e-23
-0.4875642727187497	-2.863076647252444e-23
-0.4875032375624997	-2.912680571172733e-23
-0.4874422024062497	-2.961641939125818e-23
-0.4873811672499997	-3.0082731569411156e-23
-0.4873201320937497	-3.053572690292593e-23
-0.4872590969374997	-3.099435098795842e-23
-0.4871980617812497	-3.145325241707128e-23
-0.4871370266249997	-3.1892167148394603e-23
-0.4870759914687497	-3.231109387667656e-23
-0.4870149563124997	-3.272980774210694e-23
-0.4869539211562497	-3.3153035580755056e-23
-0.4868928859999997	-3.356224805033299e-23
-0.4868318508437497	-3.394794937362415e-23
-0.4867708156874997	-3.4325829818561873e-23
-0.4867097805312497	-3.4708975462154056e-23
-0.4866487453749997	-3.5085023993633405e-23
-0.4865877102187497	-3.5437834391893635e-23
-0.4865266750624997	-3.5775359337916e-23
-0.4864656399062497	-3.6115266909671063e-23
-0.4864046047499997	-3.6453968434214844e-23
-0.4863435695937497	-3.6773046303524595e-23
-0.4862825344374997	-3.7071273748177136e-23
-0.4862214992812497	-3.7366266732057816e-23
-0.4861604641249997	-3.766346735269854e-23
-0.4860994289687497	-3.7946806708169115e-23
-0.4860383938124997	-3.820679774094866e-23
-0.4859773586562497	-3.8456681964901756e-23
-0.4859163234999997	-3.8708929218956454e-23
-0.4858552883437497	-3.895356332180853e-23
-0.4857942531874997	-3.9175758121163944e-23
-0.4857332180312497	-3.9381451521328856e-23
-0.4856721828749997	-3.9586527866967076e-23
-0.4856111477187497	-3.978903989165918e-23
-0.4855501125624997	-3.997284774091719e-23
-0.4854890774062497	-4.013571659654912e-23
-0.4854280422499997	-4.029278331295392e-23
-0.4853670070937497	-4.044993905786996e-23
-0.4853059719374997	-4.0593783582024363e-23
-0.4852449367812497	-4.0715125755360114e-23
-0.4851839016249997	-4.0824675573360055e-23
-0.4851228664687497	-4.093402299909392e-23
-0.4850618313124997	-4.10355621230912e-23
-0.4850007961562497	-4.111602581236518e-23
-0.4849397609999997	-4.117945231231326e-23
-0.4848787258437497	-4.1239738092941945e-23
-0.4848176906874997	-4.129639079748167e-23
-0.4847566555312497	-4.133571639867539e-23
-0.4846956203749997	-4.135473196251446e-23
-0.4846345852187497	-4.136599508167887e-23
-0.4845735500624997	-4.13755401011482e-23
-0.4845125149062497	-4.1372651653727874e-23
-0.4844514797499997	-4.1348760723896036e-23
-0.4843904445937497	-4.1312131608143947e-23
-0.4843294094374997	-4.1273178284532654e-23
-0.4842683742812497	-4.1226494785258385e-23
-0.4842073391249997	-4.1160611206605904e-23
-0.4841463039687497	-4.1077911967565304e-23
-0.4840852688124997	-4.099016079905533e-23
-0.4840242336562497	-4.0898031188114397e-23
-0.4839631984999997	-4.079031555495916e-23
-0.4839021633437497	-4.066358712901337e-23
-0.4838411281874997	-4.052789413132e-23
-0.4837800930312497	-4.0389128313569526e-23
-0.4837190578749997	-4.023908700447736e-23
-0.4836580227187497	-4.0070061710703525e-23
-0.4835969875624997	-3.9888128508139855e-23
-0.4835359524062497	-3.9702359991637755e-23
-0.4834749172499997	-3.950923950011241e-23
-0.4834138820937497	-3.9299177408269584e-23
-0.4833528469374997	-3.907324573975052e-23
-0.4832918117812497	-3.88410942566621e-23
-0.4832307766249997	-3.8604215373586815e-23
-0.4831697414687497	-3.8353737197005995e-23
-0.4831087063124997	-3.80860770280952e-23
-0.4830476711562497	-3.7809033386043357e-23
-0.4829866359999997	-3.752817541807597e-23
-0.4829256008437497	-3.723749986175094e-23
-0.4828645656874997	-3.693022614952495e-23
-0.4828035305312497	-3.66105737799525e-23
-0.4827424953749997	-3.628631164047475e-23
-0.4826814602187497	-3.5955465789091376e-23
-0.4826204250624997	-3.561015489563562e-23
-0.4825593899062497	-3.525044443914466e-23
-0.4824983547499997	-3.4884144722419155e-23
-0.4824373195937497	-3.451333761240486e-23
-0.4823762844374997	-3.41311617073678e-23
-0.4823152492812497	-3.3734034023058105e-23
-0.4822542141249997	-3.332785784250922e-23
-0.4821931789687497	-3.291777754016034e-23
-0.4821321438124997	-3.249957057693346e-23
-0.4820711086562497	-3.206737784871227e-23
-0.4820100734999997	-3.1624004959981586e-23
-0.4819490383437497	-3.1176044866784514e-23
-0.4818880031874997	-3.0722645420529144e-23
-0.4818269680312497	-3.025739181046974e-23
-0.4817659328749997	-2.9779691401412105e-23
-0.4817048977187497	-2.9295844644220194e-23
-0.4816438625624997	-2.880825846831054e-23
-0.4815828274062497	-2.8311640668056455e-23
-0.4815217922499997	-2.780252642084565e-23
-0.4814607570937497	-2.7285430348790415e-23
-0.4813997219374997	-2.676511377075395e-23
-0.4813386867812497	-2.623860833639388e-23
-0.4812776516249997	-2.5700762248892038e-23
-0.4812166164687497	-2.5153436425763687e-23
-0.4811555813124997	-2.4602385349736492e-23
-0.4810945461562497	-2.4047476976546885e-23
-0.4810335109999997	-2.3483301796900146e-23
-0.4809724758437497	-2.2908909903258536e-23
-0.4809114406874997	-2.232964050742922e-23
-0.4808504055312497	-2.1748014343801856e-23
-0.4807893703749997	-2.1159674327046677e-23
-0.4807283352187497	-2.056135123148321e-23
-0.4806673000624997	-1.9956825569313562e-23
-0.4806062649062497	-1.93505238941553e-23
-0.4805452297499997	-1.8740079981908803e-23
-0.4804841945937497	-1.812084735963539e-23
-0.4804231594374997	-1.7494333057431997e-23
-0.4803621242812497	-1.6865782509338233e-23
-0.4803010891249997	-1.6235239697130004e-23
-0.4802400539687497	-1.5597814269200993e-23
-0.4801790188124997	-1.4952649340748448e-23
-0.4801179836562497	-1.4304725115210926e-23
-0.4800569484999997	-1.365632899419645e-23
-0.4799959133437497	-1.3003325802219046e-23
-0.4799348781874997	-1.2342822440424737e-23
-0.4798738430312497	-1.16786367318842e-23
-0.4798128078749997	-1.1014845677396956e-23
-0.4797517727187497	-1.0348831833527181e-23
-0.4796907375624997	-9.676247945420466e-24
-0.4796297024062497	-8.999114512263459e-24
-0.4795686672499997	-8.322568002549815e-24
-0.4795076320937497	-7.64600104747655e-24
-0.4794465969374997	-6.964439507337586e-24
-0.4793855617812497	-6.2777889165328206e-24
-0.4793245266249997	-5.591410546745127e-24
-0.4792634914687497	-4.906861717673102e-24
-0.4792024563124997	-4.219357908616584e-24
-0.4791414211562497	-3.5266751786420184e-24
-0.4790803859999997	-2.8335950682471115e-24
-0.4790193508437497	-2.1437139903852807e-24
-0.4789583156874997	-1.4531900597686239e-24
-0.4788972805312497	-7.578679583348709e-25
-0.4788362453749997	-6.121380671057344e-26
-0.4787752102187497	6.313954804174813e-25
-0.4787141750624997	1.3220835902733878e-24
-0.4786531399062497	2.016490079333271e-24
-0.4785921047499997	2.713200732651997e-24
-0.4785310695937497	3.405744495646894e-24
-0.4784700344374997	4.093949591700337e-24
-0.4784089992812497	4.784163224700882e-24
-0.4783479641249997	5.477489753365867e-24
-0.4782869289687497	6.167157590761496e-24
-0.4782258938124997	6.850271079316459e-24
-0.4781648586562497	7.532987976821757e-24
-0.4781038234999997	8.219264463578732e-24
-0.4780427883437497	8.903095287771765e-24
-0.4779817531874997	9.578717038463768e-24
-0.4779207180312497	1.025088304146685e-23
-0.4778596828749997	1.0926312091497353e-23
-0.4777986477187497	1.1601099842244999e-23
-0.4777376125624997	1.226701033445637e-23
-0.4776765774062497	1.292603144686687e-23
-0.4776155422499997	1.3586908302773325e-23
-0.4775545070937497	1.424909733889447e-23
-0.4774934719374997	1.4902915600539456e-23
-0.4774324367812497	1.5546479665635688e-23
-0.4773714016249997	1.6189273360127238e-23
-0.4773103664687497	1.6835054827024347e-23
-0.4772493313124997	1.7474316237632202e-23
-0.4771882961562497	1.8100639858829815e-23
-0.4771272609999997	1.872227061934063e-23
-0.4770662258437497	1.934750461411378e-23
-0.4770051906874997	1.996924448450409e-23
-0.4769441555312497	2.0576830219777044e-23
-0.4768831203749997	2.117495037943625e-23
-0.4768220852187497	2.1775562178547305e-23
-0.4767610500624997	2.2376196938239355e-23
-0.4767000149062497	2.2963438019406708e-23
-0.4766389797499997	2.353645077914714e-23
-0.4765779445937497	2.410879526622247e-23
-0.4765169094374997	2.4684232799912328e-23
-0.4764558742812497	2.5249176008361193e-23
-0.4763948391249997	2.5796188875269494e-23
-0.4763338039687497	2.6337403923969926e-23
-0.4762727688124997	2.6883190299812703e-23
-0.4762117336562497	2.7423100527780855e-23
-0.4761506984999997	2.794354954958008e-23
-0.4760896633437497	2.8451873432775854e-23
-0.4760286281874997	2.896369457711586e-23
-0.4759675930312497	2.947491029315544e-23
-0.4759065578749997	2.9968076383077235e-23
-0.4758455227187497	3.044294539711605e-23
-0.4757844875624997	3.0917240885129104e-23
-0.4757234524062497	3.139529920326978e-23
-0.4756624172499997	3.1859655466159025e-23
-0.4756013820937497	3.230132832581128e-23
-0.4755403469374997	3.273586794387753e-23
-0.4754793117812497	3.317610790187549e-23
-0.4754182766249997	3.36089966894543e-23
-0.4753572414687497	3.4017907990166155e-23
-0.4752962063124997	3.441190022614849e-23
-0.4752351711562497	3.4810048345028016e-23
-0.4751741359999997	3.520761620260883e-23
-0.4751131008437497	3.5583729181723766e-23
-0.4750520656874997	3.593783123032345e-23
-0.4749910305312497	3.6290879709701316e-23
-0.4749299953749997	3.6648486787322023e-23
-0.4748689602187497	3.699055562123121e-23
-0.4748079250624997	3.7306181838161423e-23
-0.4747468899062497	3.761285947741987e-23
-0.4746858547499997	3.792585233671714e-23
-0.4746248195937497	3.8231103836354523e-23
-0.4745637844374997	3.8509496791430653e-23
-0.4745027492812497	3.877029777047275e-23
-0.4744417141249997	3.903498798111375e-23
-0.4743806789687497	3.9299478358990253e-23
-0.4743196438124997	3.9540975446216266e-23
-0.4742586086562497	3.975773668725121e-23
-0.4741975734999997	3.9972102433597324e-23
-0.4741365383437497	4.019131904679603e-23
-0.4740755031874997	4.039469054488781e-23
-0.4740144680312497	4.0569644826466417e-23
-0.4739534328749997	4.073363767481733e-23
-0.4738923977187497	4.0903535204268314e-23
-0.4738313625624997	4.1066045724393344e-23
-0.4737703274062497	4.120090936146374e-23
-0.4737092922499997	4.1316210313113e-23
-0.4736482570937497	4.143409156040731e-23
-0.4735872219374997	4.1552005539750167e-23
-0.4735261867812497	4.164722854985811e-23
-0.4734651516249997	4.171652191855902e-23
-0.4734041164687497	4.178158409534293e-23
-0.4733430813124997	4.185103543717204e-23
-0.4732820461562497	4.19054832657056e-23
-0.4732210109999997	4.193148451530611e-23
-0.4731599758437497	4.1944847053157115e-23
-0.4730989406874997	4.1962813429610076e-23
-0.4730379055312497	4.197404896793508e-23
-0.4729768703749997	4.1958663378468213e-23
-0.4729158352187497	4.1922869165045765e-23
-0.4728548000624997	4.188785638113337e-23
-0.4727937649062497	4.1852806843753544e-23
-0.4727327297499997	4.1796632841856175e-23
-0.4726716945937497	4.1714880796439836e-23
-0.4726106594374997	4.162723711411173e-23
-0.4725496242812497	4.1543041232898256e-23
-0.4724885891249997	4.144527872827669e-23
-0.4724275539687497	4.1320541482797766e-23
-0.4723665188124997	4.1182260001831334e-23
-0.4723054836562497	4.1047027906187167e-23
-0.4722444484999997	4.090585454814464e-23
-0.4721834133437497	4.0740262077912846e-23
-0.4721223781874997	4.055453409429308e-23
-0.4720613430312497	4.036794516235445e-23
-0.4720003078749997	4.018117130864935e-23
-0.4719392727187497	3.997555512952065e-23
-0.4718782375624997	3.9745877085313586e-23
-0.4718172024062497	3.950922986322134e-23
-0.4717561672499997	3.9275098392124555e-23
-0.4716951320937497	3.9029212630619087e-23
-0.4716340969374997	3.8758829362508215e-23
