Time	Frequency
-0.5000115679687482	2.3447757931673938e-23
-0.49995053281249824	2.370411108451649e-23
-0.49988949765624824	2.3952805849699455e-23
-0.49982846249999824	2.418846629697497e-23
-0.49976742734374824	2.4412978908407407e-23
-0.49970639218749824	2.46316766806228e-23
-0.49964535703124824	2.4843458017769363e-23
-0.49958432187499824	2.5042851937927516e-23
-0.49952328671874824	2.5229879721775454e-23
-0.49946225156249824	2.5409665525962582e-23
-0.49940121640624824	2.558288469441442e-23
-0.49934018124999824	2.5744600425176194e-23
-0.49927914609374824	2.5893253896431843e-23
-0.49921811093749824	2.603321515713511e-23
-0.49915707578124824	2.6166562300073032e-23
-0.49909604062499824	2.6289337785975952e-23
-0.49903500546874824	2.6398837075662597e-23
-0.49897397031249824	2.6498331359740814e-23
-0.49891293515624824	2.659082893898002e-23
-0.49885189999999824	2.6673598769468057e-23
-0.49879086484374824	2.6743289543369556e-23
-0.49872982968749824	2.680193627862907e-23
-0.49866879453124824	2.6852985592348687e-23
-0.49860775937499824	2.6894969956293285e-23
-0.49854672421874824	2.692434886234197e-23
-0.49848568906249824	2.694196002760583e-23
-0.49842465390624824	2.6951271663531937e-23
-0.49836361874999824	2.695198008996019e-23
-0.49830258359374824	2.69407299982807e-23
-0.49824154843749824	2.6917315721871384e-23
-0.49818051328124824	2.6884901599320025e-23
-0.49811947812499824	2.684415101777229e-23
-0.49805844296874824	2.679216862707033e-23
-0.49799740781249824	2.67279341683642e-23
-0.49793637265624824	2.6654084151154435e-23
-0.49787533749999824	2.657199879430619e-23
-0.49781430234374824	2.647941385214861e-23
-0.49775326718749824	2.6374754688052536e-23
-0.49769223203124824	2.626001245564049e-23
-0.49763119687499824	2.6137023735407678e-23
-0.49757016171874824	2.6004225101929572e-23
-0.49750912656249824	2.5859743530120002e-23
-0.49744809140624824	2.570489406106155e-23
-0.49738705624999824	2.554171795172302e-23
-0.49732602109374824	2.5369341615633772e-23
-0.49726498593749824	2.5185829764016057e-23
-0.49720395078124824	2.4991875614324788e-23
-0.49714291562499824	2.4789523290903468e-23
-0.49708188046874824	2.4578507244122002e-23
-0.49702084531249824	2.4356991685667507e-23
-0.49695981015624824	2.412513554597624e-23
-0.49689877499999824	2.3884846647555425e-23
-0.49683773984374824	2.3636366696550552e-23
-0.49677670468749824	2.3378081683931754e-23
-0.49671566953124824	2.310974122341483e-23
-0.49665463437499824	2.28330192507812e-23
-0.49659359921874824	2.2548527460182168e-23
-0.49653256406249824	2.225494192274055e-23
-0.49647152890624824	2.1951732406529924e-23
-0.49641049374999824	2.1640294845395213e-23
-0.49634945859374824	2.1321487788085363e-23
-0.49628842343749824	2.099429069770736e-23
-0.49622738828124824	2.065800241880778e-23
-0.49616635312499824	2.0313747096907208e-23
-0.49610531796874824	1.9962536445551255e-23
-0.49604428281249824	1.9603641451082524e-23
-0.49598324765624824	1.923628180954222e-23
-0.49592221249999824	1.886133737792191e-23
-0.49586117734374824	1.8479883770639732e-23
-0.49580014218749824	1.8091426201174106e-23
-0.49573910703124824	1.7695156634828957e-23
-0.49567807187499824	1.7291759354035938e-23
-0.49561703671874824	1.6882356294932858e-23
-0.49555600156249824	1.6466670345461257e-23
-0.49549496640624824	1.6043882483081264e-23
-0.49543393124999824	1.5614489219195526e-23
-0.49537289609374824	1.5179628682247584e-23
-0.49531186093749824	1.4739215320701546e-23
-0.49525082578124824	1.4292445793629212e-23
-0.49518979062499824	1.3839659062990733e-23
-0.49512875546874824	1.338198677418258e-23
-0.49506772031249824	1.2919505371072858e-23
-0.49500668515624824	1.2451435355377148e-23
-0.49494564999999824	1.1977977177244245e-23
-0.49488461484374824	1.1500260574319816e-23
-0.49482357968749824	1.1018519807167596e-23
-0.49476254453124824	1.053199752435547e-23
-0.49470150937499824	1.004075573670692e-23
-0.49464047421874824	9.545915383925857e-24
-0.49457943906249824	9.047858508415632e-24
-0.49451840390624824	8.545842378268078e-24
-0.49445736874999824	8.0397825586248e-24
-0.49439633359374824	7.530792436369925e-24
-0.49433529843749824	7.019420056875143e-24
-0.49427426328124824	6.5049517386594006e-24
-0.49421322812499824	5.9871541713060226e-24
-0.49415219296874824	5.467127836669523e-24
-0.49409115781249824	4.9455901411100144e-24
-0.49403012265624824	4.421854730623381e-24
-0.49396908749999824	3.895502053293084e-24
-0.49390805234374824	3.367580749896044e-24
-0.49384701718749824	2.8390090136227865e-24
-0.49378598203124824	2.309183981896214e-24
-0.49372494687499824	1.7774914274173313e-24
-0.49366391171874824	1.2448936591888242e-24
-0.49360287656249824	7.125184793715456e-25
-0.49354184140624824	1.7986735288817967e-25
-0.49348080624999824	-3.5388934728830036e-25
-0.49341977109374824	-8.879185702715738e-25
-0.49335873593749824	-1.4208722231490536e-24
-0.49329770078124824	-1.9530804984768217e-24
-0.49323666562499824	-2.4855888774787153e-24
-0.49317563046874824	-3.0177677654837787e-24
-0.49311459531249824	-3.548060098304122e-24
-0.49305356015624824	-4.0765624251421975e-24
-0.49299252499999824	-4.6045308767398004e-24
-0.49293148984374824	-5.131620911049966e-24
-0.49287045468749824	-5.656076139949657e-24
-0.49280941953124824	-6.177644858787635e-24
-0.49274838437499824	-6.697745474390364e-24
-0.49268734921874824	-7.216434760031987e-24
-0.49262631406249824	-7.73185371592311e-24
-0.49256527890624824	-8.243330024934996e-24
-0.49250424374999824	-8.75234805699663e-24
-0.49244320859374824	-9.259418964618554e-24
-0.49238217343749824	-9.762669712999902e-24
-0.49232113828124824	-1.0260944570527287e-23
-0.49226010312499824	-1.0755686966739182e-23
-0.49219906796874824	-1.1247941165705314e-23
-0.49213803281249824	-1.1735971570129739e-23
-0.49207699765624824	-1.221807524177381e-23
-0.49201596249999824	-1.2695468071631438e-23
-0.49195492734374824	-1.3169745176269784e-23
-0.49189389218749824	-1.3639509569723193e-23
-0.49183285703124824	-1.410255220866452e-23
-0.49177182187499824	-1.4559679497259438e-23
-0.49171078671874824	-1.501297502699256e-23
-0.49164975156249824	-1.5461550438639637e-23
-0.49158871640624824	-1.5902758081339467e-23
-0.49152768124999824	-1.633680975086875e-23
-0.49146664609374824	-1.6766181362512886e-23
-0.49140561093749824	-1.7190702013864816e-23
-0.49134457578124824	-1.760744945137084e-23
-0.49128354062499824	-1.8015855770052946e-23
-0.49122250546874824	-1.8418572548256368e-23
-0.49116147031249824	-1.881628123271704e-23
-0.49110043515624824	-1.9206021406495378e-23
-0.49103939999999824	-1.958634495278184e-23
-0.49097836484374824	-1.9959834034624448e-23
-0.49091732968749824	-2.0328112148309444e-23
-0.49085629453124824	-2.0688458821440052e-23
-0.49079525937499824	-2.1038493374636464e-23
-0.49073422421874824	-2.1380419602422993e-23
-0.49067318906249824	-2.1716797935595013e-23
-0.49061215390624824	-2.2045474427147872e-23
-0.49055111874999824	-2.23631966711351e-23
-0.49049008359374824	-2.267145646282639e-23
-0.49042904843749824	-2.2973639281535535e-23
-0.49036801328124824	-2.326849518215129e-23
-0.49030697812499824	-2.3552080190793088e-23
-0.49024594296874824	-2.3824855981478822e-23
-0.49018490781249824	-2.4090789614205786e-23
-0.49012387265624824	-2.4349825486826867e-23
-0.49006283749999824	-2.4597626232104507e-23
-0.49000180234374824	-2.4833361817611847e-23
-0.48994076718749824	-2.5061227715848486e-23
-0.48987973203124824	-2.5282588526939844e-23
-0.48981869687499824	-2.549313034370914e-23
-0.48975766171874824	-2.5690567047475395e-23
-0.48969662656249824	-2.5878852584244313e-23
-0.48963559140624824	-2.6060862051398064e-23
-0.48957455624999824	-2.6232817710450192e-23
-0.48951352109374824	-2.6390970642063495e-23
-0.48945248593749824	-2.6538491366753693e-23
-0.48939145078124824	-2.6679678291559704e-23
-0.48933041562499824	-2.681184513739914e-23
-0.48926938046874824	-2.692997801628072e-23
-0.48920834531249824	-2.7035922739806455e-23
-0.48914731015624824	-2.7135090982263345e-23
-0.48908627499999824	-2.7226395132764345e-23
-0.48902523984374824	-2.7303971986875235e-23
-0.48896420468749824	-2.7367883966726524e-23
-0.48890316953124824	-2.742414228836213e-23
-0.48884213437499824	-2.7473654479263045e-23
-0.48878109921874824	-2.751032096480461e-23
-0.48872006406249824	-2.7532115945691624e-23
-0.48865902890624824	-2.75449457977754e-23
-0.48859799374999824	-2.7551893022838844e-23
-0.48853695859374824	-2.754739675315528e-23
-0.48847592343749824	-2.752731106029496e-23
-0.48841488828124824	-2.749662125548592e-23
-0.48835385312499824	-2.746045972987252e-23
-0.48829281796874824	-2.741463274114272e-23
-0.48823178281249824	-2.735316988484552e-23
-0.48817074765624824	-2.7279332243204715e-23
-0.48810971249999824	-2.719982361166268e-23
-0.48804867734374824	-2.711254654885759e-23
-0.48798764218749824	-2.701035664047993e-23
-0.48792660703124824	-2.689417958457222e-23
-0.48786557187499824	-2.6771498760882293e-23
-0.48780453671874824	-2.664277785390919e-23
-0.48774350156249824	-2.650060248015145e-23
-0.48768246640624824	-2.634326914917899e-23
-0.48762143124999824	-2.617805087189373e-23
-0.48756039609374824	-2.6008062585558377e-23
-0.48749936093749824	-2.5826654036992522e-23
-0.48743832578124824	-2.5629627649109652e-23
-0.48737729062499824	-2.542302179122027e-23
-0.48731625546874824	-2.5212241715302003e-23
-0.48725522031249824	-2.4992355355846514e-23
-0.48719418515624824	-2.475723890871743e-23
-0.48713314999999824	-2.451086454758372e-23
-0.48707211484374824	-2.4260178436526272e-23
-0.48701107968749824	-2.4002634668166797e-23
-0.48695004453124824	-2.3731076274988408e-23
-0.48688900937499824	-2.34469316247033e-23
-0.48682797421874824	-2.3157697895841586e-23
-0.48676693906249824	-2.2863477990910492e-23
-0.48670590390624824	-2.2557108824213218e-23
-0.48664486874999824	-2.223743223884418e-23
-0.48658383359374824	-2.1911477987461393e-23
-0.48652279843749824	-2.1581821654252032e-23
-0.48646176328124824	-2.124226288028812e-23
-0.48640072812499824	-2.0889441983983638e-23
-0.48633969296874824	-2.0529052107641623e-23
-0.48627865781249824	-2.016558049506745e-23
-0.48621762265624824	-1.9794506457420684e-23
-0.48615658749999824	-1.9410946596561136e-23
-0.48609555234374824	-1.9018701814184435e-23
-0.48603451718749824	-1.8623404647130273e-23
-0.48597348203124824	-1.8222602533517795e-23
-0.48591244687499824	-1.7810717704339202e-23
-0.48585141171874824	-1.7389456022754086e-23
-0.48579037656249824	-1.696475309199238e-23
-0.48572934140624824	-1.653623138819145e-23
-0.48566830624999824	-1.609841287639372e-23
-0.48560727109374824	-1.5651065363374222e-23
-0.48554623593749824	-1.51997109194108e-23
-0.48548520078124824	-1.474576614194864e-23
-0.48542416562499824	-1.428447079110816e-23
-0.48536313046874824	-1.381401569184474e-23
-0.48530209531249824	-1.3338983748894786e-23
-0.48524106015624824	-1.286215676995312e-23
-0.48518002499999824	-1.2379926753694984e-23
-0.48511898984374824	-1.1889400934533808e-23
-0.48505795468749824	-1.1393897661156085e-23
-0.48499691953124824	-1.089702206756072e-23
-0.48493588437499824	-1.0396509098525807e-23
-0.48487484921874824	-9.888927162948715e-24
-0.48481381406249824	-9.376257626383236e-24
-0.48475277890624824	-8.862410566392151e-24
-0.48469174374999824	-8.346437987449108e-24
-0.48463070859374824	-7.824833020239821e-24
-0.48456967343749824	-7.298334767983191e-24
-0.48450863828124824	-6.77075036986736e-24
-0.48444760312499824	-6.2423023443699994e-24
-0.48438656796874824	-5.709770298404258e-24
-0.48432553281249824	-5.172840411399457e-24
-0.48426449765624824	-4.634896199152585e-24
-0.48420346249999824	-4.0970954065019674e-24
-0.48414242734374824	-3.5567673681447414e-24
-0.48408139218749824	-3.012808462656422e-24
-0.48402035703124824	-2.467968647529626e-24
-0.48395932187499824	-1.9240580404961855e-24
-0.48389828671874824	-1.3790984781345185e-24
-0.48383725156249824	-8.3147328649809e-25
-0.48377621640624824	-2.832186534571295e-25
-0.48371518124999824	2.634618213157364e-25
-0.48365414609374824	8.098087206444539e-25
-0.48359311093749824	1.3576936962600154e-24
-0.48353207578124824	1.9058154544284415e-24
-0.48347104062499824	2.4518569952043036e-24
-0.48341000546874824	2.9963666277150583e-24
-0.48334897031249824	3.541219657409993e-24
-0.48328793515624824	4.0857510173251175e-24
-0.48322689999999824	4.627715178111398e-24
-0.48316586484374824	5.1670679684553956e-24
-0.48310482968749824	5.7055475382702914e-24
-0.48304379453124824	6.2430409170080936e-24
-0.48298275937499824	6.777511023824261e-24
-0.48292172421874824	7.308428766725038e-24
-0.48286068906249824	7.837274158510216e-24
-0.48279965390624824	8.364351774258246e-24
-0.48273861874999824	8.887934491668774e-24
-0.48267758359374824	9.40716860145526e-24
-0.48261654843749824	9.923210192869918e-24
-0.48255551328124824	1.0436608900766258e-23
-0.48249447812499824	1.0945954841045388e-23
-0.48243344296874824	1.1450212365039147e-23
-0.48237240781249824	1.1950252959176475e-23
-0.48231137265624824	1.2446797459224857e-23
-0.48225033749999824	1.293873365428663e-23
-0.48218930234374824	1.3424906670589313e-23
-0.48212826718749824	1.3905904157968527e-23
-0.48206723203124824	1.438251783282539e-23
-0.48200619687499824	1.4853905547218953e-23
-0.48194516171874824	1.5318897994556564e-23
-0.48188412656249824	1.5777862828605883e-23
-0.48182309140624824	1.6231613467307735e-23
-0.48176205624999824	1.667952619497335e-23
-0.48170102109374824	1.7120427220497074e-23
-0.48163998593749824	1.755448845660643e-23
-0.48157895078124824	1.7982534971288333e-23
-0.48151791562499824	1.840414970457497e-23
-0.48145688046874824	1.881818562932576e-23
-0.48139584531249824	1.9224647859561833e-23
-0.48133481015624824	1.962434382658211e-23
-0.48127377499999824	2.001701938908397e-23
-0.48121273984374824	2.040156202079035e-23
-0.48115170468749824	2.0777848232456366e-23
-0.48109066953124824	2.1146684020957487e-23
-0.48102963437499824	2.1507971355215853e-23
-0.48096859921874824	2.186062040345621e-23
-0.48090756406249824	2.22043687749497e-23
-0.48084652890624824	2.254001634800213e-23
-0.48078549374999824	2.2867627405414638e-23
-0.48072445859374824	2.318615169652569e-23
-0.48066342343749824	2.349519421833101e-23
-0.48060238828124824	2.379553847158402e-23
-0.48054135312499824	2.408740615337648e-23
-0.48048031796874824	2.4369789168389045e-23
-0.48041928281249824	2.4642161886814597e-23
-0.48035824765624824	2.4905295712097803e-23
-0.48029721249999824	2.5159577235715472e-23
-0.48023617734374824	2.540404204304248e-23
-0.48017514218749824	2.5638017534030463e-23
-0.48011410703124824	2.5862249018547156e-23
-0.48005307187499824	2.607730997139896e-23
-0.47999203671874824	2.6282307487453514e-23
-0.47993100156249824	2.6476402667657725e-23
-0.47986996640624824	2.6660283278559106e-23
-0.47980893124999824	2.683473060944616e-23
-0.47974789609374824	2.699895852390915e-23
-0.47968686093749824	2.715194079455448e-23
-0.47962582578124824	2.729426792296851e-23
-0.47956479062499824	2.742694936479943e-23
-0.47950375546874824	2.7549358763693373e-23
-0.47944272031249824	2.766027090655576e-23
-0.47938168515624824	2.7760112564256076e-23
-0.47932064999999824	2.785012027478852e-23
-0.47925961484374824	2.7929898631704095e-23
-0.47919857968749824	2.799803423207707e-23
-0.47913754453124824	2.8054719283823964e-23
-0.47907650937499824	2.8101405753562195e-23
-0.47901547421874824	2.81380142237902e-23
-0.47895443906249824	2.8162964941260154e-23
-0.47889340390624824	2.817611361758589e-23
-0.47883236874999824	2.8179080686212905e-23
-0.47877133359374824	2.817220669169006e-23
-0.47871029843749824	2.81538233084064e-23
-0.47864926328124824	2.8123359183899876e-23
-0.47858822812499824	2.8082501482830974e-23
-0.47852719296874824	2.80320841847722e-23
-0.47846615781249824	2.797046718591312e-23
-0.47840512265624824	2.789659075999026e-23
-0.47834408749999824	2.781207855664679e-23
-0.47828305234374824	2.771831333189009e-23
-0.47822201718749824	2.761383705329895e-23
-0.47816098203124824	2.749706273325017e-23
-0.47809994687499824	2.7369369511338424e-23
-0.47803891171874824	2.7232690858371514e-23
-0.47797787656249824	2.708594297960052e-23
-0.47791684140624824	2.6927046802895613e-23
-0.47785580624999824	2.675694555081762e-23
-0.47779477109374824	2.657806288520633e-23
-0.47773373593749824	2.6389881866405045e-23
-0.47767270078124824	2.618991787028559e-23
-0.47761166562499824	2.597848315970781e-23
-0.47755063046874824	2.575836575179649e-23
-0.47748959531249824	2.552980043083389e-23
-0.47742856015624824	2.529006467453434e-23
-0.47736752499999824	2.503867482716393e-23
-0.47730648984374824	2.477857513999392e-23
-0.47724545468749824	2.4510887985388683e-23
-0.47718441953124824	2.42328942138604e-23
-0.47712338437499824	2.39432074782619e-23
-0.47706234921874824	2.3644657710845208e-23
-0.47700131406249824	2.333933302132302e-23
-0.47694027890624824	2.3024816392618212e-23
-0.47687924374999824	2.269877785125893e-23
-0.47681820859374824	2.2363604701608497e-23
-0.47675717343749824	2.2022329042816677e-23
-0.47669613828124824	2.167317221352404e-23
-0.47663510312499824	2.1312944545749878e-23
-0.47657406796874824	2.0943260434242214e-23
-0.47651303281249824	2.0567962201565903e-23
-0.47645199765624824	2.018623660808587e-23
-0.47639096249999824	1.9794217623754278e-23
-0.47632992734374824	1.93924150235165e-23
-0.47626889218749824	1.8985223413776392e-23
-0.47620785703124824	1.8573108660641827e-23
-0.47614682187499824	1.8151870402560726e-23
-0.47608578671874824	1.7720649703449153e-23
-0.47602475156249824	1.728398358610642e-23
-0.47596371640624824	1.6843805500509273e-23
-0.47590268124999824	1.6396015812859596e-23
-0.47584164609374824	1.593825469282563e-23
-0.47578061093749824	1.5474734385017403e-23
-0.47571957578124824	1.50089439658039e-23
-0.47565854062499824	1.4537420032160296e-23
-0.47559750546874824	1.4056293674811843e-23
-0.47553647031249824	1.3568857693743143e-23
-0.47547543515624824	1.3080029363816858e-23
-0.47541439999999824	1.2587563063445439e-23
-0.47535336484374824	1.2086333499232618e-23
-0.47529232968749824	1.1578175127377802e-23
-0.47523129453124824	1.1069079166241419e-23
-0.47517025937499824	1.055851834664388e-23
-0.47510922421874824	1.0040562800509949e-23
-0.47504818906249824	9.515123767299083e-24
-0.47498715390624824	8.988701765984954e-24
-0.47492611874999824	8.46288237446473e-24
-0.47486508359374824	7.931596130489198e-24
-0.47480404843749824	7.392543344870439e-24
-0.47474301328124824	6.85198250115968e-24
-0.47468197812499824	6.3137582252867225e-24
-0.47462094296874824	5.772480838848432e-24
-0.47455990781249824	5.223641027071144e-24
-0.47449887265624824	4.6723778866749166e-24
-0.47443783749999824	4.1246266121418174e-24
-0.47437680234374824	3.576567476353681e-24
-0.47431576718749824	3.0218409704709196e-24
-0.47425473203124824	2.4636209308469888e-24
-0.47419369687499824	1.909364466518573e-24
-0.47413266171874824	1.3575581508601653e-24
-0.47407162656249824	8.007351233353986e-25
-0.47401059140624824	2.395079224839094e-25
-0.47394955624999824	-3.1802332413792715e-25
-0.47388852109374824	-8.706300917065851e-25
-0.47382748593749824	-1.4258974756452217e-24
-0.47376645078124824	-1.9860300847733302e-24
-0.47370541562499824	-2.5433691163581584e-24
-0.47364438046874824	-3.09391939380891e-24
-0.47358334531249824	-3.644268705125029e-24
-0.47352231015624824	-4.199213235041032e-24
-0.47346127499999824	-4.752610852655604e-24
-0.47340023984374824	-5.298159294919342e-24
-0.47333920468749824	-5.840469380339485e-24
-0.47327816953124824	-6.386267187366467e-24
-0.47321713437499824	-6.931784799750819e-24
-0.47315609921874824	-7.469279473125784e-24
-0.47309506406249824	-8.000713637562311e-24
-0.47303402890624824	-8.533706547455318e-24
-0.47297299374999824	-9.06728952921813e-24
-0.47291195859374824	-9.593402829817794e-24
-0.47285092343749824	-1.0111198190715772e-23
-0.47278988828124824	-1.0628070855062584e-23
-0.47272885312499824	-1.1145784983434099e-23
-0.47266781796874824	-1.1657038728905685e-23
-0.47260678281249824	-1.215846179475487e-23
-0.47254574765624824	-1.2656228257587893e-23
-0.47248471249999824	-1.3154336333882614e-23
-0.47242367734374824	-1.3647120498595886e-23
-0.47236264218749824	-1.4129365585951362e-23
-0.47230160703124824	-1.4605317875400902e-23
