Time	Frequency
-0.50005149778125	1.0620317692014293e-23
-0.499990462625	1.1083719397292801e-23
-0.49992942746875	1.1547637113322769e-23
-0.4998683923125	1.2006024945333401e-23
-0.49980735715625	1.2454605190154811e-23
-0.499746322	1.2897609651948008e-23
-0.49968528684375	1.334028269290014e-23
-0.4996242516875	1.3779895278686931e-23
-0.49956321653125	1.4210176369613088e-23
-0.499502181375	1.4631478813565248e-23
-0.49944114621875	1.5049718481763385e-23
-0.4993801110625	1.546615879037875e-23
-0.49931907590625	1.587518913851466e-23
-0.49925804075	1.6273532984137957e-23
-0.49919700559375	1.6665318664568786e-23
-0.4991359704375	1.705475984103717e-23
-0.49907493528125	1.7438936927827004e-23
-0.499013900125	1.7812605407414643e-23
-0.49895286496875	1.8176686452623917e-23
-0.4988918298125	1.8536284436194265e-23
-0.49883079465625	1.8891863366322107e-23
-0.4987697595	1.9238400570035107e-23
-0.49870872434375	1.957364686832042e-23
-0.4986476891875	1.99015229075109e-23
-0.49858665403125	2.0225196708856163e-23
-0.498525618875	2.0541652529337788e-23
-0.49846458371875	2.084668807278124e-23
-0.4984035485625	2.1141700330649317e-23
-0.49834251340625	2.1430966547457938e-23
-0.49828147825	2.171426295678082e-23
-0.49822044309375	2.1987208575133488e-23
-0.4981594079375	2.2248486663042298e-23
-0.49809837278125	2.2501730843963535e-23
-0.498037337625	2.2749144685046617e-23
-0.49797630246875	2.298773390082556e-23
-0.4979152673125	2.321429966467885e-23
-0.49785423215625	2.3430592189511485e-23
-0.497793197	2.364007152035506e-23
-0.49773216184375	2.384195557431062e-23
-0.4976711266875	2.4032536410220346e-23
-0.49761009153125	2.4211314689652963e-23
-0.497549056375	2.4381582494866442e-23
-0.49748802121875	2.4544686400857396e-23
-0.4974269860625	2.4697742095203756e-23
-0.49736595090625	2.4838480629170725e-23
-0.49730491575	2.4968901269336855e-23
-0.49724388059375	2.5091688516903544e-23
-0.4971828454375	2.520562439392424e-23
-0.49712181028125	2.530767970090972e-23
-0.497060775125	2.5398054707413485e-23
-0.49699973996875	2.547965691965526e-23
-0.4969387048125	2.5553088825713145e-23
-0.49687766965625	2.5615667150141644e-23
-0.4968166345	2.5665967246885022e-23
-0.49675559934375	2.5706114021172748e-23
-0.4966945641875	2.5738071020055872e-23
-0.49663352903125	2.576033516511144e-23
-0.496572493875	2.577054981239938e-23
-0.49651145871875	2.576946069992e-23
-0.4964504235625	2.5759547197200016e-23
-0.49638938840625	2.574080585571049e-23
-0.49632835325	2.5710848151541817e-23
-0.49626731809375	2.566899900186459e-23
-0.4962062829375	2.5617388425379588e-23
-0.49614524778125	2.555730673926372e-23
-0.496084212625	2.548709551133175e-23
-0.49602317746875	2.5405068801884532e-23
-0.4959621423125	2.5312397941592854e-23
-0.49590110715625	2.5211103117521648e-23
-0.495840072	2.510067869862447e-23
-0.49577903684375	2.4979086248042514e-23
-0.4957180016875	2.4846315316001158e-23
-0.49565696653125	2.470442232707442e-23
-0.495595931375	2.4554079571864334e-23
-0.49553489621875	2.439356844299571e-23
-0.4954738610625	2.4221857486796526e-23
-0.49541282590625	2.4040444758801644e-23
-0.49535179075	2.3850867343294392e-23
-0.49529075559375	2.3652203349157244e-23
-0.4952297204375	2.3442814221549655e-23
-0.49516868528125	2.322328484315125e-23
-0.495107650125	2.299552946486195e-23
-0.49504661496875	2.2759646884192905e-23
-0.4949855798125	2.251393032236306e-23
-0.49492454465625	2.2257974267329593e-23
-0.4948635095	2.1993522469545587e-23
-0.49480247434375	2.172162724451095e-23
-0.4947414391875	2.144102751922358e-23
-0.49468040403125	2.1150519965972373e-23
-0.494619368875	2.0851218657492903e-23
-0.49455833371875	2.0544820628260697e-23
-0.4944972985625	2.0230882307971402e-23
-0.49443626340625	1.9907794905173476e-23
-0.49437522825	1.9575775806064785e-23
-0.49431419309375	1.9236726354776294e-23
-0.4942531579375	1.889118686157726e-23
-0.49419212278125	1.8537622261917438e-23
-0.494131087625	1.817528869546951e-23
-0.49407005246875	1.7805766635826973e-23
-0.4940090173125	1.74305018373448e-23
-0.49394798215625	1.704856111676197e-23
-0.493886947	1.665848423919957e-23
-0.49382591184375	1.626106844644042e-23
-0.4937648766875	1.585828292686796e-23
-0.49370384153125	1.5450152675480422e-23
-0.493642806375	1.503496392479017e-23
-0.49358177121875	1.4612476755927185e-23
-0.4935207360625	1.4184645897398045e-23
-0.49345970090625	1.3752568635075112e-23
-0.49339866575	1.3314868908787128e-23
-0.49333763059375	1.2870334214773826e-23
-0.4932765954375	1.2420329376571387e-23
-0.49321556028125	1.1966799870376748e-23
-0.493154525125	1.1509218402648378e-23
-0.49309348996875	1.1045749283676986e-23
-0.4930324548125	1.0576714401650432e-23
-0.49297141965625	1.0104405566257453e-23
-0.4929103845	9.629487922727398e-24
-0.49284934934375	9.150140580667757e-24
-0.4927883141875	8.665477349881347e-24
-0.49272727903125	8.17743299418921e-24
-0.492666243875	7.687824280419412e-24
-0.49260520871875	7.195548006468387e-24
-0.4925441735625	6.698753309635256e-24
-0.49248313840625	6.1983610205830925e-24
-0.49242210325	5.696888615940451e-24
-0.49236106809375	5.194486169364802e-24
-0.4923000329375	4.688958402565059e-24
-0.49223899778125	4.179844809982455e-24
-0.492177962625	3.669619212563868e-24
-0.49211692746875	3.159849312039585e-24
-0.4920558923125	2.6488084997568266e-24
-0.49199485715625	2.134721695962724e-24
-0.491933822	1.6191992041938148e-24
-0.49187278684375	1.1049112857878751e-24
-0.4918117516875	5.913538747035864e-25
-0.49175071653125	7.597814266320096e-26
-0.491689681375	-4.411103528199867e-25
-0.49162864621875	-9.568901409814743e-25
-0.4915676110625	-1.4701879228643443e-24
-0.49150657590625	-1.9834060598086067e-24
-0.49144554075	-2.4981303511152894e-24
-0.49138450559375	-3.0120076575824966e-24
-0.4913234704375	-3.522326384097901e-24
-0.49126243528125	-4.030327616023418e-24
-0.491201400125	-4.538835693865318e-24
-0.49114036496875	-5.047081767376288e-24
-0.4910793298125	-5.5515495390121766e-24
-0.49101829465625	-6.051593552404291e-24
-0.4909572595	-6.5503069611020466e-24
-0.49089622434375	-7.048965470527312e-24
-0.4908351891875	-7.544412143469632e-24
-0.49077415403125	-8.034007382761817e-24
-0.490713118875	-8.519859213028434e-24
-0.49065208371875	-9.005005066846041e-24
-0.4905910485625	-9.487857979220979e-24
-0.49053001340625	-9.964440014974127e-24
-0.49046897825	-1.0434819407914517e-23
-0.49040794309375	-1.0902802604346447e-23
-0.4903469079375	-1.1369181335045821e-23
-0.49028587278125	-1.182993683880059e-23
-0.490224837625	-1.2282666232793943e-23
-0.49016380246875	-1.2730458092338211e-23
-0.4901027673125	-1.3176452546911989e-23
-0.49004173215625	-1.361812135477818e-23
-0.489980697	-1.405110369974219e-23
-0.48991966184375	-1.44763350160902e-23
-0.4898586266875	-1.4898321811715073e-23
-0.48979759153125	-1.5317216684140215e-23
-0.489736556375	-1.5728103806783494e-23
-0.48967552121875	-1.6128976304864183e-23
-0.4896144860625	-1.6524001568264782e-23
-0.48955345090625	-1.6916306470269005e-23
-0.48949241575	-1.7302300393800195e-23
-0.48943138059375	-1.7677322873917864e-23
-0.4893703454375	-1.8043323353136338e-23
-0.48930931028125	-1.8405482736830245e-23
-0.489248275125	-1.876319067538105e-23
-0.48918723996875	-1.911063940776255e-23
-0.4891262048125	-1.944633794360933e-23
-0.48906516965625	-1.9775562487106337e-23
-0.4890041345	-2.0101322029714006e-23
-0.48894309934375	-2.0418915420002415e-23
-0.4888820641875	-2.072349017197983e-23
-0.48882102903125	-2.1018096576072198e-23
-0.488759993875	-2.130850997224993e-23
-0.48869895871875	-2.1593255700112372e-23
-0.4886379235625	-2.186570098155444e-23
-0.48857688840625	-2.212500256600842e-23
-0.48851585325	-2.2377515960353158e-23
-0.48845481809375	-2.2626000736747624e-23
-0.4883937829375	-2.2864656899508813e-23
-0.48833274778125	-2.308858182503822e-23
-0.488271712625	-2.3301943723814542e-23
-0.48821067746875	-2.3510970366974047e-23
-0.4881496423125	-2.371329327939961e-23
-0.48808860715625	-2.3901621614492243e-23
-0.488027572	-2.4075829848464496e-23
-0.48796653684375	-2.424317704973378e-23
-0.4879055016875	-2.4406059985074903e-23
-0.48784446653125	-2.4557766113534436e-23
-0.487783431375	-2.4693530141776478e-23
-0.48772239621875	-2.4818483779938455e-23
-0.4876613610625	-2.4939054494658808e-23
-0.48760032590625	-2.5052080210351155e-23
-0.48753929075	-2.5149929850289016e-23
-0.48747825559375	-2.5233191072423652e-23
-0.4874172204375	-2.5309681608695076e-23
-0.48735618528125	-2.5381333290575248e-23
-0.487295150125	-2.5440867054379823e-23
-0.48723411496875	-2.5483884968171146e-23
-0.4871730798125	-2.5516187736756128e-23
-0.48711204465625	-2.5544059584695197e-23
-0.4870510095	-2.5563748524779896e-23
-0.48698997434375	-2.55677187890457e-23
-0.4869289391875	-2.5557207931851685e-23
-0.48686790403125	-2.5540118480084356e-23
-0.486806868875	-2.5517823539557374e-23
-0.48674583371875	-2.5482936790832427e-23
-0.4866847985625	-2.5431679187696266e-23
-0.48662376340625	-2.5370139238652325e-23
-0.48656272825	-2.53040823863825e-23
-0.48650169309375	-2.5229426095202342e-23
-0.4864406579375	-2.513918581280855e-23
-0.48637962278125	-2.5035139228231687e-23
-0.486318587625	-2.4924792542873914e-23
-0.48625755246875	-2.480891694255736e-23
-0.4861965173125	-2.4680471452946138e-23
-0.48613548215625	-2.4536481915452428e-23
-0.486074447	-2.4382951972788448e-23
-0.48601341184375	-2.4224826327075458e-23
-0.4859523766875	-2.405794165443761e-23
-0.48589134153125	-2.38762318043124e-23
-0.485830306375	-2.3681905472282138e-23
-0.48576927121875	-2.3481696179254554e-23
-0.4857082360625	-2.3275745537090807e-23
-0.48564720090625	-2.3057687041101783e-23
-0.48558616575	-2.2825479076037265e-23
-0.48552513059375	-2.2584785035691667e-23
-0.4854640954375	-2.23395382606572e-23
-0.48540306028125	-2.2085662738425563e-23
-0.485342025125	-2.1818218774547374e-23
-0.48528098996875	-2.1539747951429545e-23
-0.4852199548125	-2.125600441074186e-23
-0.48515891965625	-2.096653361004698e-23
-0.4850978845	-2.0665821764843048e-23
-0.48503684934375	-2.03527642943803e-23
-0.4849758141875	-2.0032534021308824e-23
-0.48491477903125	-1.9708019784947888e-23
-0.484853743875	-1.9375344817790957e-23
-0.48479270871875	-1.9030733920701134e-23
-0.4847316735625	-1.8676969255169398e-23
-0.48467063840625	-1.831877299984783e-23
-0.48460960325	-1.795516151197417e-23
-0.48454856809375	-1.7581525738699635e-23
-0.4844875329375	-1.7197632797520585e-23
-0.48442649778125	-1.6808094024606437e-23
-0.484365462625	-1.6414808443185315e-23
-0.48430442746875	-1.6014183851587264e-23
-0.4842433923125	-1.5603551721076843e-23
-0.48418235715625	-1.5185811564082098e-23
-0.484121322	-1.4764687425738316e-23
-0.48406028684375	-1.4338808628159358e-23
-0.4839992516875	-1.3904458255952228e-23
-0.48393821653125	-1.3462108545422308e-23
-0.483877181375	-1.3015770885209816e-23
-0.48381614621875	-1.256650258352387e-23
-0.4837551110625	-1.2111062594229052e-23
-0.48369407590625	-1.164775876995526e-23
-0.48363304075	-1.1179503764449754e-23
-0.48357200559375	-1.0709108631114743e-23
-0.4835109704375	-1.0234929007787263e-23
-0.48344993528125	-9.754085714236595e-24
-0.483388900125	-9.267621665140048e-24
-0.48332786496875	-8.778939449275113e-24
-0.4832668298125	-8.288368757539643e-24
-0.48320579465625	-7.793066473709733e-24
-0.4831447595	-7.29221555541967e-24
-0.48308372434375	-6.788648626514382e-24
-0.4830226891875	-6.284323280874042e-24
-0.48296165403125	-5.77742433892384e-24
-0.482900618875	-5.265869271949599e-24
-0.48283958371875	-4.751140363310297e-24
-0.4827785485625	-4.236029582330756e-24
-0.48271751340625	-3.7202722957354405e-24
-0.48265647825	-3.201447890437416e-24
-0.48259544309375	-2.6794602928823557e-24
-0.4825344079375	-2.1569701022691678e-24
-0.48247337278125	-1.6351988683233356e-24
-0.482412337625	-1.1122974491794858e-24
-0.48235130246875	-5.869108692956172e-25
-0.4822902673125	-6.078450966916541e-26
-0.48222923215625	4.639157847566121e-25
-0.482168197	9.87900609828142e-25
-0.48210716184375	1.5131100921968104e-24
-0.4820461266875	2.0390428351131374e-24
-0.48198509153125	2.5633116888448858e-24
-0.481924056375	3.085363356896196e-24
-0.48186302121875	3.6069924181911125e-24
-0.4818019860625	4.12887902385671e-24
-0.48174095090625	4.6491132713267605e-24
-0.48167991575	5.166146695077555e-24
-0.48161888059375	5.6810501159724625e-24
-0.4815578454375	6.195264280653336e-24
-0.48149681028125	6.707778820368827e-24
-0.481435775125	7.216546331309159e-24
-0.48137473996875	7.721631380652954e-24
-0.4813137048125	8.224703971188699e-24
-0.48125266965625	8.725807398311182e-24
-0.4811916345	9.222960123620399e-24
-0.48113059934375	9.715230457562856e-24
-0.4810695641875	1.0203971137970272e-23
-0.48100852903125	1.0690122762505174e-23
-0.480947493875	1.117225478181644e-23
-0.48088645871875	1.164869559450501e-23
-0.4808254235625	1.2120063915194473e-23
-0.48076438840625	1.2587851636809895e-23
-0.48070335325	1.3051516107771248e-23
-0.48064231809375	1.350909235901343e-23
-0.4805812829375	1.3960260026705544e-23
-0.48052024778125	1.4406574315480978e-23
-0.480459212625	1.4848458812511214e-23
-0.48039817746875	1.5284144713401532e-23
-0.4803371423125	1.5712398524988515e-23
-0.48027610715625	1.6134346900218718e-23
-0.480215072	1.655124392913604e-23
-0.48015403684375	1.6962003214998105e-23
-0.4800930016875	1.7364751273718214e-23
-0.48003196653125	1.7759763058251173e-23
-0.479970931375	1.8148722419535767e-23
-0.47990989621875	1.8531543824760342e-23
-0.4798488610625	1.8906219051046135e-23
-0.47978782590625	1.92719860533809e-23
-0.47972679075	1.963039118156881e-23
-0.47966575559375	1.9982387014538985e-23
-0.4796047204375	2.0326419679235325e-23
-0.47954368528125	2.0660820814468827e-23
-0.479482650125	2.0986444110566257e-23
-0.47942161496875	2.1304995671436912e-23
-0.4793605798125	2.161585752069912e-23
-0.47929954465625	2.1916871269080262e-23
-0.4792385095	2.2207818245481022e-23
-0.47917747434375	2.2490627073797766e-23
-0.4791164391875	2.2765870209598635e-23
-0.47905540403125	2.303153178521772e-23
-0.478994368875	2.3286234965097382e-23
-0.47893333371875	2.35314482386869e-23
-0.4788722985625	2.3768827996069188e-23
-0.47881126340625	2.399717672772382e-23
-0.47875022825	2.421426643834632e-23
-0.47868919309375	2.4420495960070188e-23
-0.4786281579375	2.4618108981129676e-23
-0.47856712278125	2.4807209905679835e-23
-0.478506087625	2.4985379241549212e-23
-0.47844505246875	2.515164895247547e-23
-0.4783840173125	2.5308084901907154e-23
-0.47832298215625	2.5456175280779043e-23
-0.478261947	2.5594119757004977e-23
-0.47820091184375	2.5719734398921193e-23
-0.4781398766875	2.583411663866421e-23
-0.47807884153125	2.593974920878696e-23
-0.478017806375	2.603615370877438e-23
-0.47795677121875	2.612054369474992e-23
-0.4778957360625	2.6192501230402904e-23
-0.47783470090625	2.6254709389879208e-23
-0.47777366575	2.6308351522588902e-23
-0.47771263059375	2.6350963168556003e-23
-0.4776515954375	2.6380528174253646e-23
-0.47759056028125	2.6398942245332974e-23
-0.477529525125	2.6408835905168963e-23
-0.47746848996875	2.6409029764655688e-23
-0.4774074548125	2.6396431305970686e-23
-0.47734641965625	2.6371308010558837e-23
-0.4772853845	2.633694145489053e-23
-0.47722434934375	2.6294071174404217e-23
-0.4771633141875	2.6239543873454882e-23
-0.47710227903125	2.6171647354099143e-23
-0.477041243875	2.6093152868292158e-23
-0.47698020871875	2.6006727106235622e-23
-0.4769191735625	2.5910365898933897e-23
-0.47685813840625	2.5800739700533525e-23
-0.47679710325	2.567895742782302e-23
-0.47673606809375	2.5548884129401034e-23
-0.4766750329375	2.5410649399816635e-23
-0.47661399778125	2.526037387077708e-23
-0.476552962625	2.5096805844399493e-23
-0.47649192746875	2.4923673727263581e-23
-0.4764308923125	2.4743548133159556e-23
-0.47636985715625	2.4553480276321226e-23
-0.476308822	2.4349997010786966e-23
-0.47624778684375	2.4135194730106813e-23
-0.4761867516875	2.3913471431891459e-23
-0.47612571653125	2.368418036975276e-23
-0.476064681375	2.3442708393462593e-23
-0.47600364621875	2.318842851595697e-23
-0.4759426110625	2.2926091143382454e-23
-0.47588157590625	2.2658020165005928e-23
-0.47582054075	2.2380200583191312e-23
-0.47575950559375	2.208912835615341e-23
-0.4756984704375	2.178803962591065e-23
-0.47563743528125	2.1481797267310098e-23
-0.475576400125	2.1168808097842767e-23
-0.47551536496875	2.0843733725071513e-23
-0.4754543298125	2.0506727214735233e-23
-0.47539329465625	2.016358811375276e-23
-0.4753322595	1.9816253251521286e-23
-0.47527122434375	1.9459578181939025e-23
-0.4752101891875	1.9090137243029374e-23
-0.47514915403125	1.8712389412924723e-23
-0.475088118875	1.8331569875030007e-23
-0.47502708371875	1.7945023852872794e-23
-0.4749660485625	1.754674487856106e-23
-0.47490501340625	1.7137789831054558e-23
-0.47484397825	1.672497646138537e-23
-0.47478294309375	1.6309717377626465e-23
-0.4747219079375	1.588572818656605e-23
-0.47466087278125	1.5449784161982562e-23
-0.474599837625	1.5007590344800767e-23
-0.47453880246875	1.4564630871614561e-23
-0.4744777673125	1.4117141674820288e-23
-0.47441673215625	1.365855984572756e-23
-0.474355697	1.3190898166882512e-23
-0.47429466184375	1.2721861258594076e-23
-0.4742336266875	1.2252250631985905e-23
-0.47417259153125	1.1774773191863924e-23
-0.474111556375	1.1286523474525694e-23
-0.47405052121875	1.0794309421652083e-23
-0.4739894860625	1.0303675032671979e-23
-0.47392845090625	9.80986201146818e-24
-0.47386741575	9.305998284554465e-24
-0.47380638059375	8.794976162232984e-24
-0.4737453454375	8.285064956182878e-24
-0.47368431028125	7.776428416928698e-24
-0.473623275125	7.261104812042032e-24
-0.47356223996875	6.736632599369491e-24
-0.4735012048125	6.2105820897073016e-24
-0.47344016965625	5.6883054182932506e-24
-0.4733791345	5.164321892583218e-24
-0.47331809934375	4.631797262252195e-24
-0.4732570641875	4.094317839147819e-24
-0.47319602903125	3.560272143998134e-24
-0.473134993875	3.0292208928259765e-24
-0.47307395871875	2.4930128553669574e-24
-0.4730129235625	1.9497510085946135e-24
-0.47295188840625	1.4072823354644939e-24
-0.47289085325	8.70449323671593e-25
-0.47282981809375	3.334388030478409e-25
-0.4727687829375	-2.1009080688636577e-25
-0.47270774778125	-7.561151829283192e-25
-0.472646712625	-1.2966764531343033e-24
-0.47258567746875	-1.832754814390414e-24
-0.4725246423125	-2.372148741179775e-24
-0.47246360715625	-2.9160943744607593e-24
-0.472402572	-3.456970475198634e-24
-0.47234153684375	-3.990695404288351e-24
-0.4722805016875	-4.523026926655557e-24
-0.47221946653125	-5.059472178411742e-24
-0.472158431375	-5.595840832968223e-24
-0.47209739621875	-6.125037412784114e-24
-0.4720363610625	-6.648482296119626e-24
-0.47197532590625	-7.17318191486191e-24
-0.47191429075	-7.699658844155039e-24
-0.47185325559375	-8.220916039898151e-24
-0.4717922204375	-8.73383940968582e-24
-0.47173118528125	-9.243861812267985e-24
-0.471670150125	-9.755391102679212e-24
-0.47160911496875	-1.0264228385404897e-23
-0.4715480798125	-1.0764423469274414e-23
-0.47148704465625	-1.1257797704324301e-23
-0.4714260095	-1.1750336640938357e-23
-0.47136497434375	-1.2241838769941748e-23
-0.4713039391875	-1.272612492521205e-23
-0.47124290403125	-1.3201103740650014e-23
-0.471181868875	-1.3671746653375032e-23
-0.47112083371875	-1.4141310422531796e-23
-0.4710597985625	-1.4605705799443744e-23
-0.47099876340625	-1.506019453142856e-23
-0.47093772825	-1.550691491923579e-23
-0.47087669309375	-1.595078058631939e-23
-0.4708156579375	-1.6390954517920927e-23
-0.47075462278125	-1.6822146248497172e-23
-0.470693587625	-1.7243220035800087e-23
-0.47063255246875	-1.7658612473037726e-23
-0.4705715173125	-1.8070494259425793e-23
-0.47051048215625	-1.847499070281038e-23
-0.470449447	-1.8868545460329542e-23
-0.47038841184375	-1.9253506933514227e-23
-0.4703273766875	-1.963373379910274e-23
-0.47026634153125	-2.0007882324175513e-23
-0.470205306375	-2.0371575891252144e-23
-0.47014427121875	-2.072451788419966e-23
-0.4700832360625	-2.1070571053472617e-23
-0.47002220090625	-2.141094427487014e-23
-0.46996116575	-2.1742049484997572e-23
-0.46990013059375	-2.2061402932780089e-23
-0.4698390954375	-2.2371473440992436e-23
-0.46977806028125	-2.2675171413794685e-23
-0.469717025125	-2.2970783959924507e-23
-0.46965598996875	-2.3254789761710114e-23
