Time	Frequency
-0.5000114433750014	0.5224544755080468
-0.49995040821875136	0.5188009474617556
-0.49988937306250136	0.5149567548006075
-0.49982833790625136	0.51092325421895
-0.49976730275000136	0.5067018552515253
-0.49970626759375136	0.5022940794101305
-0.49964523243750136	0.4977012565748262
-0.49958419728125136	0.49292494587168034
-0.49952316212500136	0.48796708371329706
-0.49946212696875136	0.4828294094574401
-0.49940109181250136	0.47751352673625264
-0.49934005665625136	0.4720212436883951
-0.49927902150000136	0.4663545653624417
-0.49921798634375136	0.46051558940544907
-0.49915695118750136	0.4545064722455768
-0.49909591603125136	0.4483293075571313
-0.49903488087500136	0.44198607606638457
-0.49897384571875136	0.4354790489273954
-0.49891281056250136	0.42881072757527633
-0.49885177540625136	0.4219833450528692
-0.49879074025000136	0.4149991187146189
-0.49872970509375136	0.40786060129020324
-0.49866866993750136	0.4005705080807866
-0.49860763478125136	0.3931315306107998
-0.49854659962500136	0.38554637522466256
-0.49848556446875136	0.37781776053125515
-0.49842452931250136	0.3699482510136655
-0.49836349415625136	0.3619403590593846
-0.49830245900000136	0.35379683655895083
-0.49824142384375136	0.34552088906013334
-0.49818038868750136	0.33711590617161
-0.49811935353125136	0.32858484040417635
-0.49805831837500136	0.319930453252052
-0.49799728321875136	0.3111558200512325
-0.49793624806250136	0.3022640751782374
-0.49787521290625136	0.2932582796323181
-0.49781417775000136	0.2841417250605948
-0.49775314259375136	0.27491795575394223
-0.49769210743750136	0.26559042141867745
-0.49763107228125136	0.2561622443853199
-0.49757003712500136	0.2466365104738212
-0.49750900196875136	0.23701669026458527
-0.49744796681250136	0.22730647488211786
-0.49738693165625136	0.2175095280350308
-0.49732589650000136	0.20762938538042383
-0.49726486134375136	0.1976694108338416
-0.49720382618750136	0.1876330896083297
-0.49714279103125136	0.1775241047795878
-0.49708175587500136	0.1673461903000032
-0.49702072071875136	0.1571030551843483
-0.49695968556250136	0.14679826341058658
-0.49689865040625136	0.13643542453191546
-0.49683761525000136	0.12601849428068645
-0.49677658009375136	0.115551516999207
-0.49671554493750136	0.10503819871502819
-0.49665450978125136	0.0944820683590127
-0.49659347462500136	0.08388686188143317
-0.49653243946875136	0.0732565133897588
-0.49647140431250136	0.06259491253851542
-0.49641036915625136	0.051905930183176206
-0.49634933400000136	0.04119351241782427
-0.49628829884375136	0.030461531039790574
-0.49622726368750136	0.019713918574538043
-0.49616622853125136	0.008954683613525244
-0.49610519337500136	-0.0018123815444652351
-0.49604415821875136	-0.012583492237150908
-0.49598312306250136	-0.023354698007040403
-0.49592208790625136	-0.0341220719373783
-0.49586105275000136	-0.04488171869465593
-0.49580001759375136	-0.05562967504923372
-0.49573898243750136	-0.06636192260650917
-0.49567794728125136	-0.077074489580442
-0.49561691212500136	-0.0877635417079858
-0.49555587696875136	-0.09842522176834043
-0.49549484181250136	-0.10905550521032463
-0.49543380665625136	-0.11965062985949892
-0.49537277150000136	-0.13020709505651423
-0.49531173634375136	-0.14072093294225668
-0.49525070118750136	-0.15118792730763894
-0.49518966603125136	-0.16160428400836663
-0.49512863087500136	-0.17196627930203057
-0.49506759571875136	-0.1822699490941413
-0.49500656056250136	-0.19251149534433604
-0.49494552540625136	-0.20268737465034825
-0.49488449025000136	-0.21279410163024884
-0.49482345509375136	-0.22282814163391623
-0.49476241993750136	-0.2327856331429183
-0.49470138478125136	-0.2426624211270601
-0.49464034962500136	-0.2524546441475592
-0.49457931446875136	-0.2621589553393497
-0.49451827931250136	-0.2717721925373366
-0.49445724415625136	-0.2812910473724031
-0.49439620900000136	-0.2907118349341519
-0.49433517384375136	-0.30003081694812467
-0.49427413868750136	-0.3092445929316308
-0.49421310353125136	-0.31834976913816104
-0.49415206837500136	-0.32734288319252997
-0.49409103321875136	-0.3362207208177774
-0.49402999806250136	-0.3449801984568163
-0.49396896290625136	-0.35361799963538737
-0.49390792775000136	-0.3621307457438767
-0.49384689259375136	-0.37051541831097295
-0.49378585743750136	-0.3787690389233085
-0.49372482228125136	-0.38688838990915225
-0.49366378712500136	-0.3948704243505954
-0.49360275196875136	-0.4027123314987196
-0.49354171681250136	-0.41041120727965796
-0.49348068165625136	-0.4179640605241105
-0.49341964650000136	-0.4253680150021771
-0.49335861134375136	-0.432620470394555
-0.49329757618750136	-0.4397189212745246
-0.49323654103125136	-0.44666057451835434
-0.49317550587500136	-0.4534426153730972
-0.49311447071875136	-0.4600626011948009
-0.49305343556250136	-0.4665181935469775
-0.49299240040625136	-0.47280688469865356
-0.49293136525000136	-0.47892627105864455
-0.49287033009375136	-0.4848742510616473
-0.49280929493750136	-0.49064869430686897
-0.49274825978125136	-0.49624731616066314
-0.49268722462500136	-0.5016679289095237
-0.49262618946875136	-0.5069084486956358
-0.49256515431250136	-0.5119667952959678
-0.49250411915625136	-0.516841088373813
-0.49244308400000136	-0.5215296954044893
-0.49238204884375136	-0.5260309068008542
-0.49232101368750136	-0.5303429343131757
-0.49225997853125136	-0.5344640878123671
-0.49219894337500136	-0.5383927361673516
-0.49213790821875136	-0.542127395935408
-0.49207687306250136	-0.5456667086309391
-0.49201583790625136	-0.5490092943644992
-0.49195480275000136	-0.5521538669656766
-0.49189376759375136	-0.5550992390486525
-0.49183273243750136	-0.5578442238779617
-0.49177169728125136	-0.5603877165060451
-0.49171066212500136	-0.5627287149092175
-0.49164962696875136	-0.5648663359790959
-0.49158859181250136	-0.5667998202131059
-0.49152755665625136	-0.5685283693812341
-0.49146652150000136	-0.5700511738159484
-0.49140548634375136	-0.5713676090973971
-0.49134445118750136	-0.5724772072824927
-0.49128341603125136	-0.5733795041784079
-0.49122238087500136	-0.5740740384099375
-0.49116134571875136	-0.574560488420668
-0.49110031056250136	-0.5748386363689916
-0.49103927540625136	-0.5749082928471467
-0.49097824025000136	-0.574769400453567
-0.49091720509375136	-0.5744219665617147
-0.49085616993750136	-0.5738659692186638
-0.49079513478125136	-0.5731015130332489
-0.49073409962500136	-0.5721288906675752
-0.49067306446875136	-0.5709484197234738
-0.49061202931250136	-0.5695603953581398
-0.49055099415625136	-0.5679652317945902
-0.49048995900000136	-0.5661634973399322
-0.49042892384375136	-0.5641558135165855
-0.49036788868750136	-0.5619428025491103
-0.49030685353125136	-0.5595251796403149
-0.49024581837500136	-0.5569038047430067
-0.49018478321875136	-0.5540795806624559
-0.49012374806250136	-0.5510534495317225
-0.49006271290625136	-0.5478264710598986
-0.49000167775000136	-0.5443997766279344
-0.48994064259375136	-0.5407744889689284
-0.48987960743750136	-0.5369518368320878
-0.48981857228125136	-0.5329332583328261
-0.48975753712500136	-0.5287202148986805
-0.48969650196875136	-0.5243140886180062
-0.48963546681250136	-0.5197163750173063
-0.48957443165625136	-0.5149287714829479
-0.48951339650000136	-0.5099530188881471
-0.48945236134375136	-0.5047908473142461
-0.48939132618750136	-0.49944407819221615
-0.48933029103125136	-0.49391465261865614
-0.48926925587500136	-0.4882044818476953
-0.48920822071875136	-0.4823154120255446
-0.48914718556250136	-0.4762495887800626
-0.48908615040625136	-0.4700094315673299
-0.48902511525000136	-0.4635972259952124
-0.48896408009375136	-0.45701515434078266
-0.48890304493750136	-0.45026547021602065
-0.48884200978125136	-0.44335064789965317
-0.48878097462500136	-0.43627322226157716
-0.48871993946875136	-0.4290355860829374
-0.48865890431250136	-0.42164032528638656
-0.48859786915625136	-0.41409025825606816
-0.48853683400000136	-0.40638817320257875
-0.48847579884375136	-0.39853676994678566
-0.48841476368750136	-0.3905386760187878
-0.48835372853125136	-0.38239679242244157
-0.48829269337500136	-0.3741144107692265
-0.48823165821875136	-0.3656945283558465
-0.48817062306250136	-0.35713980948599916
-0.48810958790625136	-0.3484533669688325
-0.48804855275000136	-0.33963861759555125
-0.48798751759375136	-0.33069874487034284
-0.48792648243750136	-0.32163684646694607
-0.48786544728125136	-0.31245620046894645
-0.48780441212500136	-0.3031602530275511
-0.48774337696875136	-0.2937523330034156
-0.48768234181250136	-0.2842356551024749
-0.48762130665625136	-0.27461376005701027
-0.48756027150000136	-0.26489034481435325
-0.48749923634375136	-0.2550689007373842
-0.48743820118750136	-0.24515296908530781
-0.48737716603125136	-0.23514612032811064
-0.48731613087500136	-0.22505193345401442
-0.48725509571875136	-0.2148742873581437
-0.48719406056250136	-0.20461698576138646
-0.48713302540625136	-0.1942835729981535
-0.48707199025000136	-0.18387767156679286
-0.48701095509375136	-0.17340300311045856
-0.48694991993750136	-0.16286350015604004
-0.48688888478125136	-0.15226317197947256
-0.48682784962500136	-0.14160585554651853
-0.48676681446875136	-0.13089539317779383
-0.48670577931250136	-0.12013575910008367
-0.48664474415625136	-0.10933106667592778
-0.48658370900000136	-0.09848529737934701
-0.48652267384375136	-0.08760221682714728
-0.48646163868750136	-0.0766857306353112
-0.48640060353125136	-0.06573980451370476
-0.48633956837500136	-0.05476830464096423
-0.48627853321875136	-0.04377531046338863
-0.48621749806250136	-0.032765091904326686
-0.48615646290625136	-0.021741830438973143
-0.48609542775000136	-0.010709649482150788
-0.48603439259375136	0.00032761410632785846
-0.48597335743750136	0.011366226669536723
-0.48591232228125136	0.02240195475624925
-0.48585128712500136	0.033430516391807094
-0.48579025196875136	0.044447839726766906
-0.48572921681250136	0.05544983246317672
-0.48566818165625136	0.06643267559348535
-0.48560714650000136	0.07739251181411844
-0.48554611134375136	0.08832518885759495
-0.48548507618750136	0.0992266448100855
-0.48542404103125136	0.11009277965705765
-0.48536300587500136	0.12091939997396628
-0.48530197071875136	0.1317025214145242
-0.48524093556250136	0.14243828904389416
-0.48517990040625136	0.15312274488787384
-0.48511886525000136	0.16375200219590755
-0.48505783009375136	0.17432230822924033
-0.48499679493750136	0.18482969466435714
-0.48493575978125136	0.19527007893832815
-0.48487472462500136	0.205639566990954
-0.48481368946875136	0.21593439621204882
-0.48475265431250136	0.22615084019545806
-0.48469161915625136	0.23628511987714984
-0.48463058400000136	0.2463334198634974
-0.48456954884375136	0.25629189355283877
-0.48450851368750136	0.26615678359225875
-0.48444747853125136	0.27592469870234715
-0.48438644337500136	0.2855922055555144
-0.48432540821875136	0.2951555390511488
-0.48426437306250136	0.3046110178577512
-0.48420333790625136	0.3139551048536978
-0.48414230275000136	0.3231843432561856
-0.48408126759375136	0.3322953130332694
-0.48402023243750136	0.341284590539227
-0.48395919728125136	0.3501489025146167
-0.48389816212500136	0.3588850364389487
-0.48383712696875136	0.3674898065917188
-0.48377609181250136	0.3759599864213999
-0.48371505665625136	0.38429219829670797
-0.48365402150000136	0.3924833330450492
-0.48359298634375136	0.40053052136792455
-0.48353195118750136	0.4084306304795478
-0.48347091603125136	0.4161806129169773
-0.48340988087500136	0.423777753901116
-0.48334884571875136	0.43121925292506014
-0.48328781056250136	0.4385022914513789
-0.48322677540625136	0.4456242115806351
-0.48316574025000136	0.45258229876057865
-0.48310470509375136	0.45937374408459286
-0.48304366993750136	0.4659959714976833
-0.48298263478125136	0.47244672825055894
-0.48292159962500136	0.47872369158092615
-0.48286056446875136	0.4848243419173759
-0.48279952931250136	0.4907462873240488
-0.48273849415625136	0.4964874164786919
-0.48267745900000136	0.5020456572418894
-0.48261642384375136	0.5074188214834847
-0.48255538868750136	0.5126047817050916
-0.48249435353125136	0.5176016023139145
-0.48243331837500136	0.5224074955761774
-0.48237228321875136	0.527020703953904
-0.48231124806250136	0.5314394135576196
-0.48225021290625136	0.5356618565127426
-0.48218917775000136	0.539686454621197
-0.48212814259375136	0.543511721341908
-0.48206710743750136	0.5471361648701115
-0.48200607228125136	0.5505584193870772
-0.48194503712500136	0.5537772401212077
-0.48188400196875136	0.5567913698066628
-0.48182296681250136	0.5595996023021539
-0.48176193165625136	0.5622008435232672
-0.48170089650000136	0.5645940652781642
-0.48163986134375136	0.5667783628335792
-0.48157882618750136	0.5687529536452812
-0.48151779103125136	0.5705170346992586
-0.48145675587500136	0.5720698493361223
-0.48139572071875136	0.5734108166443358
-0.48133468556250136	0.5745394174504399
-0.48127365040625136	0.575455156984773
-0.48121261525000136	0.57615766513404
-0.48115158009375136	0.5766466414742675
-0.48109054493750136	0.5769218311812975
-0.48102950978125136	0.5769831146048249
-0.48096847462500136	0.5768304370022741
-0.48090743946875136	0.5764637934125679
-0.48084640431250136	0.5758833202686113
-0.48078536915625136	0.5750891809620907
-0.48072433400000136	0.5740815518758587
-0.48066329884375136	0.5728607808462921
-0.48060226368750136	0.5714273090129093
-0.48054122853125136	0.5697816314962492
-0.48048019337500136	0.5679243942194203
-0.48041915821875136	0.5658562231782353
-0.48035812306250136	0.5635777290182169
-0.48029708790625136	0.5610897384252745
-0.48023605275000136	0.5583931738221304
-0.48017501759375136	0.5554889753283788
-0.48011398243750136	0.5523782201050318
-0.48005294728125136	0.5490620728107626
-0.47999191212500136	0.545541688234757
-0.47993087696875136	0.5418182630472903
-0.47986984181250136	0.5378931487709283
-0.47980880665625136	0.5337678581012578
-0.47974777150000136	0.5294439041463814
-0.47968673634375136	0.5249227725037412
-0.47962570118750136	0.5202061104819526
-0.47956466603125136	0.5152956609275341
-0.47950363087500136	0.5101932042442208
-0.47944259571875136	0.5049006077143258
-0.47938156056250136	0.4994197652386953
-0.47932052540625136	0.49375271890979755
-0.47925949025000136	0.48790162931696
-0.47919845509375136	0.4818686146850843
-0.47913741993750136	0.4756558613483936
-0.47907638478125136	0.4692656507336491
-0.47901534962500136	0.46270024080666117
-0.47895431446875136	0.4559619902582312
-0.47889327931250136	0.44905346564896176
-0.47883224415625136	0.44197735856808895
-0.47877120900000136	0.43473638448425095
-0.47871017384375136	0.42733303804402445
-0.47864913868750136	0.4197697444719394
-0.47858810353125136	0.41204936851250157
-0.47852706837500136	0.40417517217164856
-0.47846603321875136	0.39615017536322816
-0.47840499806250136	0.3879768986425504
-0.47834396290625136	0.3796581816068157
-0.47828292775000136	0.371197431864723
-0.47822189259375136	0.36259790164085487
-0.47816085743750136	0.35386268443881835
-0.47809982228125136	0.3449949674333116
-0.47803878712500136	0.3359980656029447
-0.47797775196875136	0.32687539283735245
-0.47791671681250136	0.3176302282287926
-0.47785568165625136	0.3082658605827764
-0.47779464650000136	0.29878578405977124
-0.47773361134375136	0.2891935906783874
-0.47767257618750136	0.27949301217820144
-0.47761154103125136	0.2696878680298574
-0.47755050587500136	0.2597817744746695
-0.47748947071875136	0.24977807591885032
-0.47742843556250136	0.23968023408306002
-0.47736740040625136	0.22949211387006097
-0.47730636525000136	0.2192177106092985
-0.47724533009375136	0.2088609592817176
-0.47718429493750136	0.198425881217623
-0.47712325978125136	0.18791642025722322
-0.47706222462500136	0.177336269169985
-0.47700118946875136	0.16668922258437155
-0.47694015431250136	0.155979228633267
-0.47687911915625136	0.14521018009276745
-0.47681808400000136	0.1343862079381445
-0.47675704884375136	0.12351172464933886
-0.47669601368750136	0.11259089896699397
-0.47663497853125136	0.10162757991679855
-0.47657394337500136	0.09062570523219889
-0.47651290821875136	0.07958935825777783
-0.47645187306250136	0.06852267744583433
-0.47639083790625136	0.057429920848803405
-0.47632980275000136	0.04631540306475859
-0.47626876759375136	0.03518322866457522
-0.47620773243750136	0.02403727006836
-0.47614669728125136	0.012881790832258157
-0.47608566212500136	0.0017214619016020021
-0.47602462696875136	-0.009439598848343675
-0.47596359181250136	-0.02059771712263114
-0.47590255665625136	-0.03174868414546894
-0.47584152150000136	-0.042887970180972776
-0.47578048634375136	-0.05401142271788782
-0.47571945118750136	-0.06511500874706619
-0.47565841603125136	-0.07619444732903666
-0.47559738087500136	-0.0872454366083433
-0.47553634571875136	-0.09826385827927026
-0.47547531056250136	-0.10924568373870387
-0.47541427540625136	-0.12018681761586741
-0.47535324025000136	-0.13108309535197463
-0.47529220509375136	-0.14193044116795975
-0.47523116993750136	-0.15272484824615504
-0.47517013478125136	-0.16346211240044747
-0.47510909962500136	-0.1741379079282099
-0.47504806446875136	-0.18474820621865856
-0.47498702931250136	-0.195289252890238
-0.47492599415625136	-0.20575721622689083
-0.47486495900000136	-0.21614802069273065
-0.47480392384375136	-0.2264575376964821
-0.47474288868750136	-0.23668199634124043
-0.47468185353125136	-0.24681780703027756
-0.47462081837500136	-0.25686102867050975
-0.47455978321875136	-0.26680749352042304
-0.47449874806250136	-0.27665328627295566
-0.47443771290625136	-0.28639491114810606
-0.47437667775000136	-0.29602891314159224
-0.47431564259375136	-0.3055515081515751
-0.47425460743750136	-0.31495900295286866
-0.47419357228125136	-0.32424795212337987
-0.47413253712500136	-0.33341474925460773
-0.47407150196875136	-0.34245583448619793
-0.47401046681250136	-0.35136785744019927
-0.47394943165625136	-0.36014739739442364
-0.47388839650000136	-0.36879096712435694
-0.47382736134375136	-0.37729526203703156
-0.47376632618750136	-0.3856572671414589
-0.47370529103125136	-0.3938738514980901
-0.47364425587500136	-0.4019416008331619
-0.47358322071875136	-0.4098574029472846
-0.47352218556250136	-0.4176184416618138
-0.47346115040625136	-0.42522168479292105
-0.47340011525000136	-0.43266412694336986
-0.47333908009375136	-0.4399430230842101
-0.47327804493750136	-0.44705561879352634
-0.47321700978125136	-0.45399911403842613
-0.47315597462500136	-0.46077073831195714
-0.47309493946875136	-0.46736783939615834
-0.47303390431250136	-0.47378800255639447
-0.47297286915625136	-0.48002885294732367
-0.47291183400000136	-0.4860879360330572
-0.47285079884375136	-0.49196283562218607
-0.47278976368750136	-0.49765121269236834
-0.47272872853125136	-0.5031509118284397
-0.47266769337500136	-0.5084599004319331
-0.47260665821875136	-0.5135760867501489
-0.47254562306250136	-0.5184974428521738
-0.47248458790625136	-0.5232220333794032
-0.47242355275000136	-0.5277479567067883
-0.47236251759375136	-0.5320734783509473
-0.47230148243750136	-0.5361969577681582
-0.47224044728125136	-0.5401167738593766
-0.47217941212500136	-0.5438314085234067
-0.47211837696875136	-0.5473393585215096
-0.47205734181250136	-0.5506391901119821
-0.47199630665625136	-0.5537296204411295
-0.47193527150000136	-0.5566093917542231
-0.47187423634375136	-0.5592773464385254
-0.47181320118750136	-0.5617324516891883
-0.47175216603125136	-0.5639737029184371
-0.47169113087500136	-0.5660001949981212
-0.47163009571875136	-0.5678110919845135
-0.47156906056250136	-0.5694056206591421
-0.47150802540625136	-0.5707831156708912
-0.47144699025000136	-0.5719429646106263
-0.47138595509375136	-0.5728846657373402
-0.47132491993750136	-0.573607821635324
-0.47126388478125136	-0.5741120703852715
-0.47120284962500136	-0.5743971441736563
-0.47114181446875136	-0.5744628875587676
-0.47108077931250136	-0.5743092170496212
-0.47101974415625136	-0.5739360834742052
-0.47095870900000136	-0.5733435118928554
-0.47089767384375136	-0.5725316987155274
-0.47083663868750136	-0.5715009371792887
-0.47077560353125136	-0.5702515015416441
-0.47071456837500136	-0.5687837409162411
-0.47065353321875136	-0.567098178159773
-0.47059249806250136	-0.5651954133433195
-0.47053146290625136	-0.5630760853916462
-0.47047042775000136	-0.5607409669804138
-0.47040939259375136	-0.5581908692857303
-0.47034835743750136	-0.5554265628524542
-0.47028732228125136	-0.5524489391359729
