Time	Frequency
-0.5000572192812527	-0.3101508608036986
-0.4999961841250027	-0.31865438380896505
-0.4999351489687527	-0.32704313220126274
-0.4998741138125027	-0.3353167778035935
-0.4998130786562527	-0.34347842739387513
-0.4997520435000027	-0.3515159644724062
-0.4996910083437527	-0.3594306325157808
-0.4996299731875027	-0.36722392643280766
-0.4995689380312527	-0.3748842082333249
-0.4995079028750027	-0.38241457107737953
-0.4994468677187527	-0.3898151287221669
-0.4993858325625027	-0.3970745177122319
-0.4993247974062527	-0.4041967182261129
-0.4992637622500027	-0.4111804111110747
-0.4992027270937527	-0.41801521051498886
-0.4991416919375027	-0.4247060620350724
-0.4990806567812527	-0.4312504546429479
-0.4990196216250027	-0.4376391040334462
-0.4989585864687527	-0.4438773056024433
-0.4988975513125027	-0.4499612804133522
-0.4988365161562527	-0.45588319160630936
-0.4987754810000027	-0.46164873324657274
-0.4987144458437527	-0.46725300796105773
-0.4986534106875027	-0.47268936240077547
-0.4985923755312527	-0.4779634094766701
-0.4985313403750027	-0.4830695187222404
-0.4984703052187527	-0.48800260701229586
-0.4984092700625027	-0.4927679865144508
-0.4983482349062527	-0.4973593449953679
-0.4982871997500027	-0.5017733056971945
-0.4982261645937527	-0.5060147957171082
-0.4981651294375027	-0.5100768253196525
-0.4981040942812527	-0.5139573542652078
-0.4980430591250027	-0.5176606756864525
-0.4979820239687527	-0.5211797134299739
-0.4979209888125027	-0.5245140935298758
-0.4978599536562527	-0.5276673618061014
-0.4977989185000027	-0.5306322595997894
-0.4977378833437527	-0.5334095791189428
-0.4976768481875027	-0.5360019897961631
-0.4976158130312527	-0.5384026592068041
-0.4975547778750027	-0.5406136860636137
-0.4974937427187527	-0.5426366648855256
-0.4974327075625027	-0.5444651364888251
-0.4973716724062527	-0.5461023656632609
-0.4973106372500027	-0.5475490304698262
-0.4972496020937527	-0.548799204338434
-0.4971885669375027	-0.5498569951470803
-0.4971275317812527	-0.5507221830551994
-0.4970664966250027	-0.5513896697772969
-0.4970054614687527	-0.5518641930370091
-0.4969444263125027	-0.5521445541116813
-0.4968833911562527	-0.5522266879770995
-0.4968223560000027	-0.5521159025721714
-0.4967613208437527	-0.5518101556991138
-0.4967002856875027	-0.5513064107664357
-0.4966392505312527	-0.5506101158521465
-0.4965782153750027	-0.5497185493349106
-0.4965171802187527	-0.5486300741553511
-0.4964561450625027	-0.5473501233353372
-0.4963951099062527	-0.5458751703596123
-0.4963340747500027	-0.5442048544513176
-0.4962730395937527	-0.5423445605553721
-0.4962120044375027	-0.5402903528130099
-0.4961509692812527	-0.5380431463673042
-0.4960899341250027	-0.5356079276009088
-0.4960288989687527	-0.5329804755675138
-0.4959678638125027	-0.530163030076742
-0.4959068286562527	-0.5271600797877724
-0.4958457935000027	-0.5239674100153231
-0.4957847583437527	-0.5205884605845664
-0.4957237231875027	-0.5170267408451131
-0.4956626880312527	-0.5132781421643247
-0.4956016528750027	-0.5093475780562611
-0.4955406177187527	-0.5052378992954146
-0.4954795825625027	-0.5009452135537593
-0.4954185474062527	-0.49647524246023655
-0.4953575122500027	-0.49182995367676435
-0.4952964770937527	-0.487006275215786
-0.4952354419375027	-0.48201077446313395
-0.4951744067812527	-0.4768442298748633
-0.4951133716250027	-0.47150443614296544
-0.4950523364687527	-0.46599873167151895
-0.4949913013125027	-0.460326800013338
-0.4949302661562527	-0.4544874735389413
-0.4948692310000027	-0.44848854839448155
-0.4948081958437527	-0.44232866439325963
-0.4947471606875027	-0.436007911476201
-0.4946861255312527	-0.42953429725180636
-0.4946250903750027	-0.42290561019292194
-0.4945640552187527	-0.4161234569666917
-0.4945030200625027	-0.40919559434305275
-0.4944419849062527	-0.40211870331345284
-0.4943809497500027	-0.3948960953194449
-0.4943199145937527	-0.387535439514986
-0.4942588794375027	-0.38003251748386024
-0.4941978442812527	-0.37239205962973465
-0.4941368091250027	-0.3646213059588254
-0.4940757739687527	-0.3567158202560756
-0.4940147388125027	-0.3486819251024026
-0.4939537036562527	-0.3405255338609559
-0.4938926685000027	-0.332241844052537
-0.4938316333437527	-0.3238392683995111
-0.4937705981875027	-0.31532291987519473
-0.4937095630312527	-0.3066878375289385
-0.4936485278750027	-0.29794353986802913
-0.4935874927187527	-0.2890936422939085
-0.4935264575625027	-0.28013384978446393
-0.4934654224062527	-0.2710752502980331
-0.4934043872500027	-0.26191962800545054
-0.4933433520937527	-0.25266333254890433
-0.4932823169375027	-0.2433189465551173
-0.4932212817812527	-0.23388645300567526
-0.4931602466250027	-0.2243630137041374
-0.4930992114687527	-0.2147623775030193
-0.4930381763125027	-0.2050828265126493
-0.4929771411562527	-0.19532257678606962
-0.4929161060000027	-0.18549601805317922
-0.4928550708437527	-0.1755997707775187
-0.4927940356875027	-0.16563359551992476
-0.4927330005312527	-0.1556122926630576
-0.4926719653750027	-0.1455307317839126
-0.4926109302187527	-0.13539031699815893
-0.4925498950625027	-0.12520588157428048
-0.4924888599062527	-0.11497061231869835
-0.4924278247500027	-0.10468793282255591
-0.4923667895937527	-0.09437267296538915
-0.4923057544375027	-0.08401642874406984
-0.4922447192812527	-0.07362450478598806
-0.4921836841250027	-0.06321126905611911
-0.4921226489687527	-0.052766862268654256
-0.4920616138125027	-0.0422987139379076
-0.4920005786562527	-0.03182060312067848
-0.4919395435000027	-0.021321175838180988
-0.4918785083437527	-0.010809912438659265
-0.4918174731875027	-0.00030005407422452557
-0.4917564380312527	0.01022083848749202
-0.4916954028750027	0.0207413978109875
-0.4916343677187527	0.031249554816044935
-0.4915733325625027	0.041758615692291445
-0.4915122974062527	0.052254800471267474
-0.4914512622500027	0.06272742377416032
-0.4913902270937527	0.07319109169318053
-0.4913291919375027	0.08362975495270042
-0.4912681567812527	0.09403368250125181
-0.4912071216250027	0.10441818310924686
-0.4911460864687527	0.1147654733194463
-0.4910850513125027	0.12506755916846188
-0.4910240161562527	0.1353399419040697
-0.4909629810000027	0.14556280833865703
-0.4909019458437527	0.15573034386803036
-0.4908409106875027	0.1658579608349726
-0.4907798755312527	0.17592343737245833
-0.4907188403750027	0.18592319881348393
-0.4906578052187527	0.19587288613098144
-0.4905967700625027	0.2057488589158985
-0.4905357349062527	0.21554974877678093
-0.4904746997500027	0.22528996484974181
-0.4904136645937527	0.23494436918923448
-0.4903526294375027	0.244514478076507
-0.4902915942812527	0.2540135684092544
-0.4902305591250027	0.26341568972654833
-0.4901695239687527	0.27272491870012766
-0.4901084888125027	0.28195218370775715
-0.4900474536562527	0.2910712403456428
-0.4899864185000027	0.300089163270422
-0.4899253833437527	0.3090144690466753
-0.4898643481875027	0.3178214329250756
-0.4898033130312527	0.32651961786159356
-0.4897422778750027	0.3351141745765936
-0.4896812427187527	0.3435804671933773
-0.4896202075625027	0.3519305902430306
-0.4895591724062527	0.36016636996863927
-0.4894981372500027	0.3682649739893065
-0.4894371020937527	0.37624037925610726
-0.4893760669375027	0.384090540587439
-0.4893150317812527	0.3917948555067733
-0.4892539966250027	0.3993691116602965
-0.4891929614687527	0.40680805675733456
-0.4891319263125027	0.4140937205854794
-0.4890708911562527	0.4212423989521091
-0.4890098560000027	0.4282456170584568
-0.4889488208437527	0.43508893728759324
-0.4888877856875027	0.44178886627145836
-0.4888267505312527	0.44833372043733644
-0.4887657153750027	0.45471248630075695
-0.4887046802187527	0.4609414221919379
-0.4886436450625027	0.4670063449030376
-0.4885826099062527	0.47289979283571615
-0.4885215747500027	0.4786372490989493
-0.4884605395937527	0.48420254711404376
-0.4883995044375027	0.4895915782037286
-0.4883384692812527	0.4948184751940318
-0.4882774341250027	0.4998656837026482
-0.4882163989687527	0.5047324239098224
-0.4881553638125027	0.5094312988376266
-0.4880943286562527	0.5139440151321292
-0.4880332935000027	0.5182727686965513
-0.4879722583437527	0.5224281591253436
-0.4879112231875027	0.526391502215247
-0.4878501880312527	0.5301676126172365
-0.4877891528750027	0.5337651786749823
-0.4877281177187527	0.5371659819499081
-0.4876670825625027	0.5403770480331871
-0.4876060474062527	0.543404777897454
-0.4875450122500027	0.5462316984402749
-0.4874839770937527	0.5488666293270019
-0.4874229419375027	0.5513139585497743
-0.4873619067812527	0.5535576278368084
-0.4873008716250027	0.5556076532738317
-0.4872398364687527	0.5574661631054306
-0.4871788013125027	0.5591188493003711
-0.4871177661562527	0.5605767000632832
-0.4870567310000027	0.5618397550994958
-0.4869956958437527	0.5628956895528393
-0.4869346606875027	0.5637560437734062
-0.4868736255312527	0.5644188808218186
-0.4868125903750027	0.5648741082092981
-0.4867515552187527	0.5651335602439354
-0.4866905200625027	0.5651935317720416
-0.4866294849062527	0.5650461927379327
-0.4865684497500027	0.5647032525762578
-0.4865074145937527	0.5641595297405065
-0.4864463794375027	0.5634095782205132
-0.4863853442812527	0.562464668201689
-0.4863243091250027	0.5613183713546724
-0.4862632739687527	0.559967578831303
-0.4862022388125027	0.5584229572897501
-0.4861412036562527	0.5566772566513802
-0.4860801685000027	0.5547295553045015
-0.4860191333437527	0.5525895524066741
-0.4859580981875027	0.550249465570325
-0.4858970630312527	0.5477105207401491
-0.4858360278750027	0.544981352548934
-0.4857749927187527	0.5420539063504332
-0.4857139575625027	0.53893128399024
-0.4856529224062527	0.5356208577494413
-0.4855918872500027	0.5321147158456074
-0.4855308520937527	0.5284179124198823
-0.4854698169375027	0.524536508221335
-0.4854087817812527	0.520462716172592
-0.4853477466250027	0.5162030325643272
-0.4852867114687527	0.5117622847558636
-0.4852256763125027	0.5071333377508503
-0.4851646411562527	0.5023238346364841
-0.4851036060000027	0.4973372506994546
-0.4850425708437527	0.49216739143954963
-0.4849815356875027	0.4868229415560221
-0.4849205005312527	0.481306210369698
-0.4848594653750027	0.4756120097194122
-0.4847984302187527	0.4697494233266778
-0.4847373950625027	0.46371949170026944
-0.4846763599062527	0.4575183709855429
-0.4846153247500027	0.4511556449335422
-0.4845542895937527	0.4446313845660991
-0.4844932544375027	0.437943034936316
-0.4844322192812527	0.4311001622794342
-0.4843711841250027	0.42410204458394085
-0.4843101489687527	0.41694777050244924
-0.4842491138125027	0.4096465885405265
-0.4841880786562527	0.4021967411779466
-0.4841270435000027	0.3945988249484406
-0.4840660083437527	0.3868617631253627
-0.4840049731875027	0.3789832183366286
-0.4839439380312527	0.37096549897025843
-0.4838829028750027	0.3628173137315121
-0.4838218677187527	0.3545359367856463
-0.4837608325625027	0.3461245855848908
-0.4836997974062527	0.33759083932354567
-0.4836387622500027	0.32893203399056914
-0.4835777270937527	0.3201531037479885
-0.4835166919375027	0.31126084225383277
-0.4834556567812527	0.3022525222822049
-0.4833946216250027	0.2931341538513876
-0.4833335864687527	0.2839115750980869
-0.4832725513125027	0.2745823330814414
-0.4832115161562527	0.26515347779564796
-0.4831504810000027	0.25562998627940303
-0.4830894458437527	0.24600989723670938
-0.4830284106875027	0.23630079830412076
-0.4829673755312527	0.22650639124366967
-0.4829063403750027	0.2166256150679065
-0.4828453052187527	0.2066670832935123
-0.4827842700625027	0.19663345851416228
-0.4827232349062527	0.1865241096236469
-0.4826621997500027	0.1763477645910208
-0.4826011645937527	0.16610639692070142
-0.4825401294375027	0.15580086232889243
-0.4824790942812527	0.14543994534248475
-0.4824180591250027	0.13502407386252505
-0.4823570239687527	0.12455493233431954
-0.4822959888125027	0.11404169858903962
-0.4822349536562527	0.10348445599449924
-0.4821739185000027	0.09288594796026345
-0.4821128833437527	0.08225477698547273
-0.4820518481875027	0.07159017402207306
-0.4819908130312527	0.060895973024138884
-0.4819297778750027	0.05018040323305364
-0.4818687427187527	0.039442525031298574
-0.4818077075625027	0.028687429051398365
-0.4817466724062527	0.017922290637015045
-0.4816856372500027	0.00714569856591366
-0.4816246020937527	-0.0036358953920172317
-0.4815635669375027	-0.014416022195549473
-0.4815025317812527	-0.02519630040865893
-0.4814414966250027	-0.035969524011313425
-0.4813804614687527	-0.04673032832526862
-0.4813194263125027	-0.057479983551861104
-0.4812583911562527	-0.06821023898972502
-0.4811973560000027	-0.078916824593991
-0.4811363208437527	-0.0896004630075545
-0.4810752856875027	-0.10025236007390392
-0.4810142505312527	-0.11087011230008564
-0.4809532153750027	-0.12145393866129202
-0.4808921802187527	-0.13199399931590078
-0.4808311450625027	-0.1424887569197573
-0.4807701099062527	-0.15293776376142337
-0.4807090747500027	-0.16333136296668524
-0.4806480395937527	-0.1736691941384387
-0.4805870044375027	-0.1839494414907934
-0.4805259692812527	-0.19416281993189485
-0.4804649341250027	-0.20431066550358778
-0.4804038989687527	-0.21438946477174264
-0.4803428638125027	-0.22438955188966375
-0.4802818286562527	-0.23431361483863827
-0.4802207935000027	-0.2441572465770727
-0.4801597583437527	-0.25391153766288527
-0.4800987231875027	-0.26358029721213333
-0.4800376880312527	-0.2731575546156914
-0.4799766528750027	-0.2826349519624378
-0.4799156177187527	-0.2920168875917111
-0.4798545825625027	-0.3012958494455737
-0.4797935474062527	-0.31046473893358434
-0.4797325122500027	-0.3195286459000913
-0.4796714770937527	-0.32847882624749225
-0.4796104419375027	-0.3373098818214337
-0.4795494067812527	-0.34602696979758846
-0.4794883716250027	-0.3546195695191063
-0.4794273364687527	-0.36308402917549504
-0.4793663013125027	-0.3714255661963152
-0.4793052661562527	-0.37963224971942366
-0.4792442310000027	-0.38770233100722645
-0.4791831958437527	-0.3956407005792738
-0.4791221606875027	-0.4034342560352531
-0.4790611255312527	-0.4110833900284389
-0.4790000903750027	-0.4185925181159879
-0.4789390552187527	-0.42594776595750333
-0.4788780200625027	-0.433151494253149
-0.4788169849062527	-0.44020680889991926
-0.4787559497500027	-0.4470991810673732
-0.4786949145937527	-0.4538334075248881
-0.4786338794375027	-0.46041149367370326
-0.4785728442812527	-0.4668184536093475
-0.4785118091250027	-0.4730611752706447
-0.4784507739687527	-0.47914028881106635
-0.4783897388125027	-0.4850407354684168
-0.4783287036562527	-0.4907713815353593
-0.4782676685000027	-0.49633113232481624
-0.4782066333437527	-0.5017052119310139
-0.4781455981875027	-0.506904765537897
-0.4780845630312527	-0.5119269344542307
-0.4780235278750027	-0.5167570623021882
-0.4779624927187527	-0.5214082350238745
-0.4779014575625027	-0.5258759341634414
-0.4778404224062527	-0.5301459557419416
-0.4777793872500027	-0.5342330748790154
-0.4777183520937527	-0.5381310673721458
-0.4776573169375027	-0.541826721064643
-0.4775962817812527	-0.5453364523599975
-0.4775352466250027	-0.5486518029201888
-0.4774742114687527	-0.5517604361521308
-0.4774131763125027	-0.5546805452916507
-0.4773521411562527	-0.5574018026165385
-0.4772911060000027	-0.5599130353874567
-0.4772300708437527	-0.5622337506473215
-0.4771690356875027	-0.5643514846281783
-0.4771080005312527	-0.5662566236489669
-0.4770469653750027	-0.5679699129756595
-0.4769859302187527	-0.5694766929648463
-0.4769248950625027	-0.5707691734505019
-0.4768638599062527	-0.5718689848989674
-0.4768028247500027	-0.5727592470945542
-0.4767417895937527	-0.5734343274948359
-0.4766807544375027	-0.5739164230852373
-0.4766197192812527	-0.5741866858413598
-0.4765586841250027	-0.5742419296813878
-0.4764976489687527	-0.574104201494767
-0.4764366138125027	-0.5737529148384566
-0.4763755786562527	-0.5731877602723711
-0.4763145435000027	-0.5724300044813132
-0.4762535083437527	-0.5714577025491806
-0.4761924731875027	-0.5702737115153467
-0.4761314380312527	-0.5688977661219828
-0.4760704028750027	-0.5673069945244795
-0.4760093677187527	-0.5655075456380636
-0.4759483325625027	-0.5635170674123796
-0.4758872974062527	-0.561312563862919
-0.4758262622500027	-0.5589033466270168
-0.4757652270937527	-0.5563040736268271
-0.4757041919375027	-0.5534923678751079
-0.4756431567812527	-0.5504808359591644
-0.4755821216250027	-0.54728066584998
-0.4755210864687527	-0.5438705208178021
-0.4754600513125027	-0.5402658869157118
-0.4753990161562527	-0.5364743705015532
-0.4753379810000027	-0.5324765085415082
-0.4752769458437527	-0.5282901544891927
-0.4752159106875027	-0.5239190852051365
-0.4751548755312527	-0.5193462230323586
-0.4750938403750027	-0.5145911970792644
-0.4750328052187527	-0.5096541027005859
-0.4749717700625027	-0.5045208165192057
-0.4749107349062527	-0.4992120350936124
-0.4748496997500027	-0.49372431480122503
-0.4747886645937527	-0.4880469752699145
-0.4747276294375027	-0.4822013550266392
-0.4746665942812527	-0.47618064022900614
-0.4746055591250027	-0.4699773069038115
-0.4745445239687527	-0.46361278979733744
-0.4744834888125027	-0.45707801142236687
-0.4744224536562527	-0.4503689163349975
-0.4743614185000027	-0.44350610195735896
-0.4743003833437527	-0.4364783610840578
-0.4742393481875027	-0.42928499473231413
-0.4741783130312527	-0.4219454509148677
-0.4741172778750027	-0.414447040053535
-0.4740562427187527	-0.40679238213745267
-0.4739952075625027	-0.3989995516496306
-0.4739341724062527	-0.39105477836867836
-0.4738731372500027	-0.38296340131224116
-0.4738121020937527	-0.3747418406089034
-0.4737510669375027	-0.3663762996718887
-0.4736900317812527	-0.35787475000317176
-0.4736289966250027	-0.3492513123728811
-0.4735679614687527	-0.34049214629363894
-0.4735069263125027	-0.33160745972729616
-0.4734458911562527	-0.32260950722910653
-0.4733848560000027	-0.31348515073188804
-0.4733238208437527	-0.304245921800779
-0.4732627856875027	-0.29490184387584545
-0.4732017505312527	-0.28544150894719234
-0.4731407153750027	-0.27587803306596875
-0.4730796802187527	-0.26621885462205325
-0.4730186450625027	-0.25645374194025145
-0.4729576099062527	-0.24659671317393667
-0.4728965747500027	-0.2366531015526499
-0.4728355395937527	-0.2266146436093637
-0.4727745044375027	-0.21649601152181303
-0.4727134692812527	-0.20630030688760742
-0.4726524341250027	-0.19602126142156653
-0.4725913989687527	-0.185673836729445
-0.4725303638125027	-0.17525906151142723
-0.4724693286562527	-0.16477280054172572
-0.4724082935000027	-0.15423006711532672
-0.4723472583437527	-0.14363007076097437
-0.4722862231875027	-0.1329707593020965
-0.4722251880312527	-0.12226697548948531
-0.4721641528750027	-0.1115166119758449
-0.4721031177187527	-0.10071947172904071
-0.4720420825625027	-0.08988936606691958
-0.4719810474062527	-0.07902308034449526
-0.4719200122500027	-0.06812284400468906
-0.4718589770937527	-0.05720180011934199
-0.4717979419375027	-0.04625569905758807
-0.4717369067812527	-0.035288301349395285
-0.4716758716250027	-0.024311554588333104
-0.4716148364687527	-0.013320950286168113
-0.4715538013125027	-0.0023222324389521455
-0.4714927661562527	0.008674110689472428
-0.4714317310000027	0.019673067211644815
-0.4713706958437527	0.030667220892685972
-0.4713096606875027	0.041647248031796785
-0.4712486255312527	0.05261808649231891
-0.4711875903750027	0.06357131883877608
-0.4711265552187527	0.0744993665235522
-0.4710655200625027	0.0854068231130699
-0.4710044849062527	0.09628394099447517
-0.4709434497500027	0.10712422611059558
-0.4708824145937527	0.1179316558043039
-0.4708213794375027	0.1286960916544026
-0.4707603442812527	0.13941274078768157
-0.4706993091250027	0.1500848181212235
-0.4706382739687527	0.16070168973670584
-0.4705772388125027	0.17125991822943712
-0.4705162036562527	0.18176179936300088
-0.4704551685000027	0.19219649147604528
-0.4703941333437527	0.20256159095129656
-0.4703330981875027	0.21285811436495786
-0.4702720630312527	0.2230755729258058
-0.4702110278750027	0.23321305306530454
-0.4701499927187527	0.24327034574702316
-0.4700889575625027	0.25323724694017474
-0.4700279224062527	0.2631139955906376
-0.4699668872500027	0.2728991719253339
-0.4699058520937527	0.2825829587582733
-0.4698448169375027	0.2921663206807613
-0.4697837817812527	0.3016465886210918
-0.4697227466250027	0.311014792618629
-0.4696617114687527	0.32027276106571273
