Time	Frequency
-0.5000190726875005	-0.11421230716034651
-0.49995803753125045	-0.12340729333172451
-0.49989700237500045	-0.13240049011625854
-0.49983596721875045	-0.14114993869727346
-0.49977493206250045	-0.14982613884192736
-0.49971389690625045	-0.15863399170946782
-0.49965286175000045	-0.16759788411576437
-0.49959182659375045	-0.17653222214656727
-0.49953079143750045	-0.18522930949419267
-0.49946975628125045	-0.1936716828868839
-0.49940872112500045	-0.20204876965243737
-0.49934768596875045	-0.21055923032536447
-0.49928665081250045	-0.2192026981962109
-0.49922561565625045	-0.22777615078882332
-0.49916458050000045	-0.23607973151195058
-0.49910354534375045	-0.24412076765375781
-0.49904251018750045	-0.25210502686242375
-0.49898147503125045	-0.26022274127022815
-0.49892043987500045	-0.2684490788667954
-0.49885940471875045	-0.2765655841827284
-0.49879836956250045	-0.2843822637208678
-0.49873733440625045	-0.2919317493122931
-0.49867629925000045	-0.2994344834048585
-0.49861526409375045	-0.3070695827896049
-0.49855422893750045	-0.31478678198285054
-0.49849319378125045	-0.32235431787780827
-0.49843215862500045	-0.3295951640644029
-0.49837112346875045	-0.33656814880537617
-0.49831008831250045	-0.34350594581183286
-0.49824905315625045	-0.35057313587447336
-0.49818801800000045	-0.3576936591771332
-0.49812698284375045	-0.36462595181501195
-0.49806594768750045	-0.37120933210442003
-0.49800491253125045	-0.37752807698715024
-0.49794387737500045	-0.383823400278107
-0.49788284221875045	-0.39024302693204166
-0.49782180706250045	-0.396686176898243
-0.49776077190625045	-0.4029044482622759
-0.49769973675000045	-0.4087554494596452
-0.49763870159375045	-0.41434819570659753
-0.49757766643750045	-0.4199298857447649
-0.49751663128125045	-0.425629527903744
-0.49745559612500045	-0.43132238850383375
-0.49739456096875045	-0.4367557988692551
-0.49733352581250045	-0.44180748912661605
-0.49727249065625045	-0.44661050471685226
-0.49721145550000045	-0.4514153875714153
-0.49715042034375045	-0.45633059934198106
-0.49708938518750045	-0.4612083580787704
-0.49702835003125045	-0.465794392556445
-0.49696731487500045	-0.46998830883370585
-0.49690627971875045	-0.473946342511967
-0.49684524456250045	-0.4779197995892257
-0.49678420940625045	-0.48199481720988935
-0.49672317425000045	-0.4860015321918499
-0.49666213909375045	-0.4896869324415512
-0.49660110393750045	-0.49297418464866805
-0.49654006878125045	-0.49604139872638336
-0.49647903362500045	-0.4991377586213393
-0.49641799846875045	-0.5023257044857593
-0.49635696331250045	-0.5054149298215672
-0.49629592815625045	-0.508156691347054
-0.49623489300000045	-0.5104988412809097
-0.49617385784375045	-0.5126392293116562
-0.49611282268750045	-0.5148219598932882
-0.49605178753125045	-0.5170853707497329
-0.49599075237500045	-0.5192210368207592
-0.49592971721875045	-0.5209868172945337
-0.49586868206250045	-0.5223554528618186
-0.49580764690625045	-0.5235427811632555
-0.49574661175000045	-0.5247857595551971
-0.49568557659375045	-0.5260980250222597
-0.49562454143750045	-0.5272546389788677
-0.49556350628125045	-0.5280225040387428
-0.49550247112500045	-0.5283999431768902
-0.49544143596875045	-0.5286188072166136
-0.49538040081250045	-0.528906298746411
-0.49531936565625045	-0.5292509864768148
-0.49525833050000045	-0.529413753275174
-0.49519729534375045	-0.5291730392162952
-0.49513626018750045	-0.5285527507986496
-0.49507522503125045	-0.5277983640439953
-0.49501418987500045	-0.5271251045623147
-0.49495315471875045	-0.5264966181192374
-0.49489211956250045	-0.5256619006358894
-0.49483108440625045	-0.5244131414524434
-0.49477004925000045	-0.5227997289400561
-0.49470901409375045	-0.5210782752125585
-0.49464797893750045	-0.5194496416758654
-0.49458694378125045	-0.5178529166127094
-0.49452590862500045	-0.5160280929558849
-0.49446487346875045	-0.513783371177267
-0.49440383831250045	-0.5111927731173798
-0.49434280315625045	-0.5085210700607874
-0.49428176800000045	-0.5059528371825605
-0.49422073284375045	-0.5034036650206049
-0.49415969768750045	-0.5006073680388732
-0.49409866253125045	-0.49738982218867756
-0.49403762737500045	-0.49384859352562743
-0.49397659221875045	-0.4902539844702221
-0.49391555706250045	-0.48677275271170495
-0.49385452190625045	-0.48329794942774296
-0.49379348675000045	-0.4795596926901299
-0.49373245159375045	-0.4754031851505398
-0.49367141643750045	-0.47094863878723603
-0.49361038128125045	-0.4664691074245805
-0.49354934612500045	-0.4621115922330006
-0.49348831096875045	-0.45774774504607724
-0.49342727581250045	-0.4531072402068318
-0.49336624065625045	-0.4480564506028878
-0.49330520550000045	-0.4427366517491076
-0.49324417034375045	-0.4374203190349016
-0.49318313518750045	-0.4322330679643735
-0.49312210003125045	-0.42702682740767683
-0.49306106487500045	-0.42153398632891403
-0.49300002971875045	-0.41564359327466915
-0.49293899456250045	-0.4095162931624226
-0.49287795940625045	-0.4034206717527965
-0.49281692425000045	-0.39745954163774694
-0.49275588909375045	-0.39146705365115136
-0.49269485393750045	-0.38518149167167615
-0.49263381878125045	-0.37851578100647015
-0.49257278362500045	-0.37164799857657566
-0.49251174846875045	-0.36483963019057625
-0.49245071331250045	-0.3581691826610383
-0.49238967815625045	-0.351454889721657
-0.49232864300000045	-0.3444447521468785
-0.49226760784375045	-0.3370772778414392
-0.49220657268750045	-0.32954529855657844
-0.49214553753125045	-0.32209898556227523
-0.49208450237500045	-0.3147914487791154
-0.49202346721875045	-0.30742808685733863
-0.49196243206250045	-0.2997703024296594
-0.49190139690625045	-0.2917825668614129
-0.49184036175000045	-0.28366942662813677
-0.49177932659375045	-0.27566655129021034
-0.49171829143750045	-0.2678015709824018
-0.49165725628125045	-0.2598698809568806
-0.49159622112500045	-0.2516489122765444
-0.49153518596875045	-0.24312921522511816
-0.49147415081250045	-0.23452482580139264
-0.49141311565625045	-0.22605413976868874
-0.49135208050000045	-0.21771845908411377
-0.49129104534375045	-0.20930549603918577
-0.49123001018750045	-0.20061186376826784
-0.49116897503125045	-0.19165449326841374
-0.49110793987500045	-0.18265405782423985
-0.49104690471875045	-0.17380886435668158
-0.49098586956250045	-0.165093940438427
-0.49092483440625045	-0.1562921017979206
-0.49086379925000045	-0.14722225220251006
-0.49080276409375045	-0.13792800234265462
-0.49074172893750045	-0.1286330732170369
-0.49068069378125045	-0.11951181032309478
-0.49061965862500045	-0.11051320559057097
-0.49055862346875045	-0.10141893923872962
-0.49049758831250045	-0.09207309218231047
-0.49043655315625045	-0.08254519322174618
-0.49037551800000045	-0.07305903503645206
-0.49031448284375045	-0.06376305100738475
-0.49025344768750045	-0.05458099937384486
-0.49019241253125045	-0.045296089206872
-0.49013137737500045	-0.03577924324789679
-0.49007034221875045	-0.026124551590375363
-0.49000930706250045	-0.016552740448849506
-0.48994827190625045	-0.007184615924209758
-0.48988723675000045	0.0020797173419593545
-0.48982620159375045	0.011452112306520648
-0.48976516643750045	0.021032966922718537
-0.48970413128125045	0.030705417964075103
-0.48964309612500045	0.040255533321040385
-0.48958206096875045	0.04959177555637777
-0.48952102581250045	0.05883569321268527
-0.48945999065625045	0.06819103281406437
-0.48939895550000045	0.0777284564936469
-0.48933792034375045	0.08731003993931716
-0.48927688518750045	0.09673121210537244
-0.48921585003125045	0.10593086219721577
-0.48915481487500045	0.11505079153512912
-0.48909377971875045	0.12428406311106802
-0.48903274456250045	0.13367087931335517
-0.48897170940625045	0.1430542939752846
-0.48891067425000045	0.152241492382708
-0.48884963909375045	0.16120195973460702
-0.48878860393750045	0.17009573898330232
-0.48872756878125045	0.17910284559566614
-0.48866653362500045	0.18823245339501019
-0.48860549846875045	0.19731097743434173
-0.48854446331250045	0.206160724908357
-0.48848342815625045	0.21478237083573679
-0.48842239300000045	0.2233511227760285
-0.48836135784375045	0.23203070308094034
-0.48830032268750045	0.24079950174516596
-0.48823928753125045	0.24947033353858472
-0.48817825237500045	0.25788295727406324
-0.48811721721875045	0.266068648480687
-0.48805618206250045	0.2742152571125793
-0.48799514690625045	0.2824687852549851
-0.48793411175000045	0.2907779068694523
-0.48787307659375045	0.2989438729509571
-0.48781204143750045	0.30682484167485913
-0.48775100628125045	0.31448189358567635
-0.48768997112500045	0.3221136999442024
-0.48762893596875045	0.3298471197907416
-0.48756790081250045	0.33760173108154246
-0.48750686565625045	0.34517009305455204
-0.48744583050000045	0.35243102972171836
-0.48738479534375045	0.3594740653311813
-0.48732376018750045	0.36650492002302293
-0.48726272503125045	0.37362933045493396
-0.48720168987500045	0.3807397252965717
-0.48714065471875045	0.3876236745833353
-0.48707961956250045	0.3941824657395944
-0.48701858440625045	0.40053249898887294
-0.48695754925000045	0.40688321044658254
-0.48689651409375045	0.4133174127019585
-0.48683547893750045	0.41970194657934956
-0.48677444378125045	0.42582255178843126
-0.48671340862500045	0.4316043482203483
-0.48665237346875045	0.43718896715190925
-0.48659133831250045	0.4427869141809793
-0.48653030315625045	0.44845711063845095
-0.48646926800000045	0.4540424231306056
-0.48640823284375045	0.45932948829916037
-0.48634719768750045	0.46426831166066757
-0.48628616253125045	0.46902386433685184
-0.48622512737500045	0.47380485467209943
-0.48616409221875045	0.47864561236795117
-0.48610305706250045	0.483367207310727
-0.48604202190625045	0.48775984163790126
-0.48598098675000045	0.4917989285478605
-0.48591995159375045	0.4956707963310092
-0.48585891643750045	0.4995797419367804
-0.48579788128125045	0.5035347516605702
-0.48573684612500045	0.5073372081754035
-0.48567581096875045	0.5107839810235816
-0.48561477581250045	0.5138767851056715
-0.48555374065625045	0.5168209030178121
-0.48549270550000045	0.5198129260214546
-0.48543167034375045	0.5228358183702835
-0.48537063518750045	0.5256739234115688
-0.48530960003125045	0.5281339225236659
-0.48524856487500045	0.5302442618030421
-0.48518752971875045	0.5322264857192232
-0.48512649456250045	0.534266536874102
-0.48506545940625045	0.5363213111774705
-0.48500442425000045	0.5381609142167092
-0.48494338909375045	0.5396045096950577
-0.48488235393750045	0.5407071799177047
-0.48482131878125045	0.541704140146726
-0.48476028362500045	0.5427681963339687
-0.48469924846875045	0.5438301014256663
-0.48463821331250045	0.5446481265898097
-0.48457717815625045	0.5450565569188749
-0.48451614300000045	0.5451373447874499
-0.48445510784375045	0.5451368302609276
-0.48439407268750045	0.5452119130911588
-0.48433303753125045	0.5452671625919822
-0.48427200237500045	0.5450519086153267
-0.48421096721875045	0.5444184179965048
-0.48414993206250045	0.543475184467058
-0.48408889690625045	0.5424763651238667
-0.48402786175000045	0.5415602192706885
-0.48396682659375045	0.5406059485665153
-0.48390579143750045	0.5393573813559517
-0.48384475628125045	0.5376871566107871
-0.48378372112500045	0.5357292675141779
-0.48372268596875045	0.5337424301334778
-0.48366165081250045	0.5318441526222021
-0.48360061565625045	0.5298893505999525
-0.48353958050000045	0.5276193775056702
-0.48347854534375045	0.5249290538459113
-0.48341751018750045	0.5219767353757846
-0.48335647503125045	0.5190229881865971
-0.48329543987500045	0.5161629824136179
-0.48323440471875045	0.5132283308428657
-0.48317336956250045	0.5099605926494949
-0.48311233440625045	0.5062785410289395
-0.48305129925000045	0.5023637271857155
-0.48299026409375045	0.49847543518000725
-0.48292922893750045	0.49468472169799516
-0.48286819378125045	0.4908014557639196
-0.48280715862500045	0.48657061861696854
-0.48274612346875045	0.481936357961801
-0.48268508831250045	0.47710166923427455
-0.48262405315625045	0.4723216976052856
-0.48256301800000045	0.4676424281323551
-0.48250198284375045	0.462853612611524
-0.48244094768750045	0.45770590924814997
-0.48237991253125045	0.45216960587569266
-0.48231887737500045	0.44646779462954755
-0.48225784221875045	0.44084895996010726
-0.48219680706250045	0.43533280105251165
-0.48213577190625045	0.4296909526972948
-0.48207473675000045	0.42368305771780373
-0.48201370159375045	0.41730613502658637
-0.48195266643750045	0.4108005308496886
-0.48189163128125045	0.40440522463327117
-0.48183059612500045	0.39811361907085935
-0.48176956096875045	0.39168151154670006
-0.48170852581250045	0.384879880689091
-0.48164749065625045	0.3777327865665399
-0.48158645550000045	0.37049551964297495
-0.48152542034375045	0.3633949436303794
-0.48146438518750045	0.35639819228436337
-0.48140335003125045	0.3492477723904859
-0.48134231487500045	0.34172819257324577
-0.48128127971875045	0.3338902723199093
-0.48122024456250045	0.32600200638295723
-0.48115920940625045	0.3182759427438883
-0.48109817425000045	0.3106529063303187
-0.48103713909375045	0.30286453737751345
-0.48097610393750045	0.29471105168449807
-0.48091506878125045	0.28626941394923533
-0.48085403362500045	0.27781778704136245
-0.48079299846875045	0.26955277419216517
-0.48073196331250045	0.26138951937296334
-0.48067092815625045	0.2530509091214874
-0.48060989300000045	0.2443548919629598
-0.48054885784375045	0.23540445662344942
-0.48048782268750045	0.2264848718422498
-0.48042678753125045	0.21777384190283927
-0.48036575237500045	0.2091618647307419
-0.48030471721875045	0.20036698003396078
-0.48024368206250045	0.1912268009855433
-0.48018264690625045	0.1818682428206042
-0.48012161175000045	0.17258035578698505
-0.48006057659375045	0.16352097676784833
-0.47999954143750045	0.15455790009128426
-0.47993850628125045	0.1454069399654842
-0.47987747112500045	0.13592602437500362
-0.47981643596875045	0.1262643216765987
-0.47975540081250045	0.11671259503887585
-0.47969436565625045	0.10740779668341227
-0.47963333050000045	0.09819561792140581
-0.47957229534375045	0.08879201506101228
-0.47951126018750045	0.0790773346661099
-0.47945022503125045	0.0692217449811578
-0.47938918987500045	0.0595139566898047
-0.47932815471875045	0.05006850284338496
-0.47926711956250045	0.040711555569682444
-0.47920608440625045	0.03116252272069579
-0.47914504925000045	0.021324863033741974
-0.47908401409375045	0.011387658844319302
-0.47902297893750045	0.0016343654684422106
-0.47896194378125045	-0.00784461946744358
-0.47890090862500045	-0.017240935228179318
-0.47883987346875045	-0.026827835887003763
-0.47877883831250045	-0.036676811394341806
-0.47871780315625045	-0.04658221419728558
-0.47865676800000045	-0.056269689585067194
-0.47859573284375045	-0.065674066577622
-0.47853469768750045	-0.07500243337096692
-0.47847366253125045	-0.08451782091739728
-0.47841262737500045	-0.0942661356804036
-0.47835159221875045	-0.10402713652017875
-0.47829055706250045	-0.11353845176706608
-0.47822952190625045	-0.12276141960472559
-0.47816848675000045	-0.1319162291793323
-0.47810745159375045	-0.1412515790992779
-0.47804641643750045	-0.1507866423739294
-0.47798538128125045	-0.16029032116358116
-0.47792434612500045	-0.16951699628517464
-0.47786331096875045	-0.17845479300319367
-0.47780227581250045	-0.1873325267469583
-0.47774124065625045	-0.19638056845770707
-0.47768020550000045	-0.20559214201236975
-0.47761917034375045	-0.21472944524118037
-0.47755813518750045	-0.22356630697632343
-0.47749710003125045	-0.2321167507150654
-0.47743606487500045	-0.24061555776750826
-0.47737502971875045	-0.2492726934573263
-0.47731399456250045	-0.2580553170573983
-0.47725295940625045	-0.26672113901021094
-0.47719192425000045	-0.27506638585635607
-0.47713088909375045	-0.2831315974797949
-0.47706985393750045	-0.291154618196553
-0.47700881878125045	-0.2993215581853449
-0.47694778362500045	-0.3075736113954752
-0.47688674846875045	-0.3156675900526347
-0.47682571331250045	-0.32342519303898026
-0.47676467815625045	-0.3309129598509974
-0.47670364300000045	-0.33836843979635534
-0.47664260784375045	-0.3459511160200321
-0.47658157268750045	-0.3535767644693341
-0.47652053753125045	-0.3610048444528284
-0.47645950237500045	-0.368085604198756
-0.47639846721875045	-0.3749105862947585
-0.47633743206250045	-0.3817129121717897
-0.47627639690625045	-0.3886230371812184
-0.47621536175000045	-0.3955332732336717
-0.47615432659375045	-0.4022094982344096
-0.47609329143750045	-0.40853203933510723
-0.47603225628125045	-0.41461563806914126
-0.47597122112500045	-0.42068597263653845
-0.47591018596875045	-0.42684306982283965
-0.47584915081250045	-0.43295734027357374
-0.47578811565625045	-0.438804212504521
-0.47572708050000045	-0.4442956226823184
-0.47566604534375045	-0.44956775804991567
-0.47560501018750045	-0.4548356012288826
-0.47554397503125045	-0.4601674522722423
-0.47548293987500045	-0.4654139051568072
-0.47542190471875045	-0.47036322632813593
-0.47536086956250045	-0.47495994096334865
-0.47529983440625045	-0.47935940431197427
-0.47523879925000045	-0.4837630023654263
-0.47517776409375045	-0.4882068779587906
-0.47511672893750045	-0.4925240841019358
-0.47505569378125045	-0.49651823178569926
-0.47499465862500045	-0.5001667309633603
-0.47493362346875045	-0.5036419626151377
-0.47487258831250045	-0.5071292575904078
-0.47481155315625045	-0.5106323218912847
-0.47475051800000045	-0.5139689927318561
-0.47468948284375045	-0.516960974362548
-0.47462844768750045	-0.5196188153177785
-0.47456741253125045	-0.5221291939094603
-0.47450637737500045	-0.5246585504501935
-0.47444534221875045	-0.5271783819220082
-0.47438430706250045	-0.5294944182963843
-0.47432327190625045	-0.5314489578835752
-0.47426223675000045	-0.5330849000810138
-0.47420120159375045	-0.5346002434298247
-0.47414016643750045	-0.536140605860625
-0.47407913128125045	-0.5376463158179245
-0.47401809612500045	-0.5389138324630712
-0.47395706096875045	-0.5398077100271474
-0.47389602581250045	-0.540402024887829
-0.47383499065625045	-0.5409033238047799
-0.47377395550000045	-0.5414348714029972
-0.47371292034375045	-0.541907105332232
-0.47365188518750045	-0.5421100246450458
-0.47359085003125045	-0.5419319972236897
-0.47352981487500045	-0.5414769655108496
-0.47346877971875045	-0.5409570576742841
-0.47340774456250045	-0.5404716022606105
-0.47334670940625045	-0.5399027048345177
-0.47328567425000045	-0.5390371040150607
-0.47322463909375045	-0.5377884794045086
-0.47316360393750045	-0.5362887531559788
-0.47310256878125045	-0.5347522795704037
-0.47304153362500045	-0.533253149286789
-0.47298049846875045	-0.5316472342187536
-0.47291946331250045	-0.5297212791997806
-0.47285842815625045	-0.5274153478165293
-0.47279739300000045	-0.5248872850826993
-0.47273635784375045	-0.5223506500704217
-0.47267532268750045	-0.5198532914099538
-0.47261428753125045	-0.5172269162300108
-0.47255325237500045	-0.514261343865461
-0.47249221721875045	-0.5109237866204726
-0.47243118206250045	-0.5073955417578008
-0.47237014690625045	-0.5038863293391935
-0.47230911175000045	-0.5004174047923441
-0.47224807659375045	-0.49679882519289614
-0.47218704143750045	-0.4928261787982635
-0.47212600628125045	-0.48849421052136116
-0.47206497112500045	-0.4840054335941027
-0.47200393596875045	-0.4795629116974658
-0.47194290081250045	-0.47516076522396833
-0.47188186565625045	-0.47058986185492463
-0.47182083050000045	-0.46565450862482916
-0.47175979534375045	-0.4603772704146562
-0.47169876018750045	-0.45497910344070197
-0.47163772503125045	-0.44965340125702813
-0.47157668987500045	-0.44436692945072515
-0.47151565471875045	-0.4388941061694553
-0.47145461956250045	-0.433050924079694
-0.47139358440625045	-0.4268879798699052
-0.47133254925000045	-0.42064195324660214
-0.47127151409375045	-0.41449375216180345
-0.47121047893750045	-0.40838264529813123
-0.47114944378125045	-0.40206934490765156
-0.47108840862500045	-0.3953845488892004
-0.47102737346875045	-0.3884067950170342
-0.47096633831250045	-0.3813849856675503
-0.47090530315625045	-0.37448430915739256
-0.47084426800000045	-0.3676170391037584
-0.47078323284375045	-0.3605336102132108
-0.47072219768750045	-0.35308198613919806
-0.47066116253125045	-0.3453682511995816
-0.47060012737500045	-0.3376512833396135
-0.47053909221875045	-0.3300784912802704
-0.47047805706250045	-0.32253481192676664
-0.47041702190625045	-0.3147622291663629
-0.47035598675000045	-0.30662825984833897
