Time	Frequency
-0.500037166624999	0.5483846592854359
-0.499976131468749	0.5504995473412643
-0.499915096312499	0.5524240287456128
-0.499854061156249	0.5541680160241366
-0.499793025999999	0.5556919956692781
-0.499731990843749	0.5569815739624698
-0.499670955687499	0.5580702555465955
-0.499609920531249	0.5589735234263337
-0.499548885374999	0.5596616995408034
-0.499487850218749	0.5601173475184704
-0.499426815062499	0.5603651314200749
-0.499365779906249	0.5604225114885277
-0.499304744749999	0.5602686269832172
-0.499243709593749	0.5598862001008711
-0.499182674437499	0.5592926096853619
-0.499121639281249	0.5585044795428554
-0.499060604124999	0.557507690107376
-0.498999568968749	0.5562873333576096
-0.498938533812499	0.554855974463326
-0.498877498656249	0.5532280918751866
-0.498816463499999	0.5513938302252864
-0.498755428343749	0.5493411468311689
-0.498694393187499	0.5470799635863182
-0.498633358031249	0.5446225714033541
-0.498572322874999	0.5419614765807013
-0.498511287718749	0.5390871874888944
-0.498450252562499	0.5360086690931167
-0.498389217406249	0.5327367210975409
-0.498328182249999	0.5292648117825579
-0.498267147093749	0.5255851024514991
-0.498206111937499	0.521706656267848
-0.498145076781249	0.5176396121957404
-0.498084041624999	0.5133776632867277
-0.498023006468749	0.5089138038327878
-0.497961971312499	0.5042575449210354
-0.497900936156249	0.4994192887752035
-0.497839900999999	0.4943929330196401
-0.497778865843749	0.4891712948389984
-0.497717830687499	0.4837640670547096
-0.497656795531249	0.4781827535015877
-0.497595760374999	0.47242196039407314
-0.497534725218749	0.46647382075686183
-0.497473690062499	0.4603475354103483
-0.497412654906249	0.4540558422017363
-0.497351619749999	0.4475945986397354
-0.497290584593749	0.44095522809940446
-0.497229549437499	0.43414598460514114
-0.497168514281249	0.42718080936835995
-0.497107479124999	0.42005738090595524
-0.497046443968749	0.41276676272757906
-0.496985408812499	0.4053156952178688
-0.496924373656249	0.3977184635227587
-0.496863338499999	0.3899746047306995
-0.496802303343749	0.3820755607123778
-0.496741268187499	0.37402679525601334
-0.496680233031249	0.3658426080106271
-0.496619197874999	0.35752434115645565
-0.496558162718749	0.34906419651650283
-0.496497127562499	0.34046641637635544
-0.496436092406249	0.33174459823888214
-0.496375057249999	0.3229012499967195
-0.496314022093749	0.3139296031854377
-0.496252986937499	0.30483352497583316
-0.496191951781249	0.29562630593429373
-0.496130916624999	0.28631111341909143
-0.496069881468749	0.2768818746677215
-0.496008846312499	0.2673423098325099
-0.495947811156249	0.2577050916059809
-0.495886775999999	0.24797343120137635
-0.495825740843749	0.2381421035459928
-0.495764705687499	0.22821551548640115
-0.495703670531249	0.21820628962118307
-0.495642635374999	0.20811713169964102
-0.495581600218749	0.19794282970292734
-0.495520565062499	0.1876886496706456
-0.495459529906249	0.1773677745262106
-0.495398494749999	0.16698227155714593
-0.495337459593749	0.15652589689045102
-0.495276424437499	0.1460045558153856
-0.495215389281249	0.13543347044866863
-0.495154354124999	0.12481453926878115
-0.495093318968749	0.1141391863922475
-0.495032283812499	0.10341349403736584
-0.494971248656249	0.09265552512633925
-0.494910213499999	0.08186766333492955
-0.494849178343749	0.07103855592588922
-0.494788143187499	0.06017328420700361
-0.494727108031249	0.049292712880214286
-0.494666072874999	0.0384007242591843
-0.494605037718749	0.02748311790124661
-0.494544002562499	0.01654303876055941
-0.494482967406249	0.0056044893856506675
-0.494421932249999	-0.005325673705812638
-0.494360897093749	-0.016264554554969737
-0.494299861937499	-0.027212821194153924
-0.494238826781249	-0.0381438188321774
-0.494177791624999	-0.04904617044714185
-0.494116756468749	-0.05993939982012422
-0.494055721312499	-0.0708295632139335
-0.493994686156249	-0.08168827001842446
-0.493933650999999	-0.09249805084096653
-0.493872615843749	-0.10327916671407335
-0.493811580687499	-0.11404413359215326
-0.493750545531249	-0.12476467328853341
-0.493689510374999	-0.13541657404340163
-0.493628475218749	-0.14601947712192723
-0.493567440062499	-0.156593264296296
-0.493506404906249	-0.16711131658273332
-0.493445369749999	-0.17754210057466954
-0.493384334593749	-0.18790275443416007
-0.493323299437499	-0.19822052685917552
-0.493262264281249	-0.20847237236333616
-0.493201229124999	-0.2186192974834482
-0.493140193968749	-0.22867368053848314
-0.493079158812499	-0.23867053063015048
-0.493018123656249	-0.24859350221442966
-0.492957088499999	-0.2583966902475201
-0.492896053343749	-0.26808458970506427
-0.492835018187499	-0.2776984719992476
-0.492773983031249	-0.287231290776435
-0.492712947874999	-0.2966320771879406
-0.492651912718749	-0.3058953895261481
-0.492590877562499	-0.3150668937211506
-0.492529842406249	-0.3241504413962821
-0.492468807249999	-0.3330918875108691
-0.492407772093749	-0.34187433645033927
-0.492346736937499	-0.35054572541745593
-0.492285701781249	-0.3591227371708914
-0.492224666624999	-0.36755112774635584
-0.492163631468749	-0.37580107215374664
-0.492102596312499	-0.38391929257767565
-0.492041561156249	-0.391935939114225
-0.491980525999999	-0.399799808570186
-0.491919490843749	-0.40746766407579466
-0.491858455687499	-0.41498179433991556
-0.491797420531249	-0.422386361466676
-0.491736385374999	-0.4296371999812425
-0.491675350218749	-0.4366779268282701
-0.491614315062499	-0.4435422875025237
-0.491553279906249	-0.45028732405492183
-0.491492244749999	-0.45687972340485317
-0.491431209593749	-0.4632515919742641
-0.491370174437499	-0.4694243481047767
-0.491309139281249	-0.475465897415571
-0.491248104124999	-0.48135770511780973
-0.491187068968749	-0.4870228882699488
-0.491126033812499	-0.4924668403387833
-0.491064998656249	-0.49776546542068595
-0.491003963499999	-0.5029185076572794
-0.490942928343749	-0.507843552576111
-0.490881893187499	-0.5125266518654074
-0.490820858031249	-0.5170473186864492
-0.490759822874999	-0.5214264375209542
-0.490698787718749	-0.5255813829586229
-0.490637752562499	-0.529476910703069
-0.490576717406249	-0.5331904601355937
-0.490515682249999	-0.5367652001911177
-0.490454647093749	-0.5401241056287075
-0.490393611937499	-0.5432100969607571
-0.490332576781249	-0.5460924365473877
-0.490271541624999	-0.5488364850954891
-0.490210506468749	-0.5513774459965962
-0.490149471312499	-0.5536375372753871
-0.490088436156249	-0.5556709227288996
-0.490027400999999	-0.5575627220175009
-0.489966365843749	-0.5592671758700751
-0.489905330687499	-0.5606895520081816
-0.489844295531249	-0.5618626253566943
-0.489783260374999	-0.5628864515820283
-0.489722225218749	-0.5637399517845829
-0.489661190062499	-0.5643172289716601
-0.489600154906249	-0.5646247329420314
-0.489539119749999	-0.5647707021410234
-0.489478084593749	-0.5647628656322137
-0.489417049437499	-0.5644918858014409
-0.489356014281249	-0.5639348230385476
-0.489294979124999	-0.5631995216570461
-0.489233943968749	-0.5623242418040929
-0.489172908812499	-0.5612054264213204
-0.489111873656249	-0.5597905808474203
-0.489050838499999	-0.5581776821328616
-0.488989803343749	-0.5564340746798166
-0.488928768187499	-0.5544713417840778
-0.488867733031249	-0.5522105576421936
-0.488806697874999	-0.5497307816038264
-0.488745662718749	-0.5471234783364806
-0.488684627562499	-0.5443237766881891
-0.488623592406249	-0.5412329809021387
-0.488562557249999	-0.537903974329759
-0.488501522093749	-0.534444512032307
-0.488440486937499	-0.5308191111027611
-0.488379451781249	-0.5269179947328541
-0.488318416624999	-0.5227634506517972
-0.488257381468749	-0.5184698184008112
-0.488196346312499	-0.5140336872264973
-0.488135311156249	-0.5093446599464246
-0.488074275999999	-0.5043938106499934
-0.488013240843749	-0.499291572189154
-0.487952205687499	-0.49406522872564756
-0.487891170531249	-0.48861377054426464
-0.487830135374999	-0.4829000780516791
-0.487769100218749	-0.47702119334670295
-0.487708065062499	-0.47103036391366493
-0.487647029906249	-0.4648445551598112
-0.487585994749999	-0.45840498527250084
-0.487524959593749	-0.45178831886782367
-0.487463924437499	-0.44506594271038175
-0.487402889281249	-0.4381777628704215
-0.487341854124999	-0.43105139726343916
-0.487280818968749	-0.42373962794039804
-0.487219783812499	-0.4163239053670255
-0.487158748656249	-0.4087695272823
-0.487097713499999	-0.4009989392720513
-0.487036678343749	-0.39303998247962446
-0.486975643187499	-0.3849753959070879
-0.486914608031249	-0.3767949536093167
-0.486853572874999	-0.3684244060517012
-0.486792537718749	-0.35986948979191885
-0.486731502562499	-0.35120664549349134
-0.486670467406249	-0.3424457018425076
-0.486609432249999	-0.3335217297175522
-0.486548397093749	-0.32442341883175974
-0.486487361937499	-0.31521631002843353
-0.486426326781249	-0.30592520266189926
-0.486365291624999	-0.29649827977804855
-0.486304256468749	-0.2869124917394793
-0.486243221312499	-0.27721946291770055
-0.486182186156249	-0.2674531178710263
-0.486121150999999	-0.2575763098822618
-0.486060115843749	-0.24756004480281507
-0.485999080687499	-0.23744186963475863
-0.485938045531249	-0.2272593424298586
-0.485877010374999	-0.21698896992751213
-0.485815975218749	-0.2066008459663308
-0.485754940062499	-0.19612026372409325
-0.485693904906249	-0.18558405217445428
-0.485632869749999	-0.17498015510988565
-0.485571834593749	-0.16428126479963281
-0.485510799437499	-0.1535027109868224
-0.485449764281249	-0.14267767085901376
-0.485388729124999	-0.13180276887429668
-0.485327693968749	-0.12085560021515951
-0.485266658812499	-0.10984484994545594
-0.485205623656249	-0.09879829482740916
-0.485144588499999	-0.087717436535351
-0.485083553343749	-0.0765854684547785
-0.485022518187499	-0.06540808198271664
-0.484961483031249	-0.05420824700132582
-0.484900447874999	-0.04298945478456402
-0.484839412718749	-0.03173927191250738
-0.484778377562499	-0.020462317958504103
-0.484717342406249	-0.009177651103355979
-0.484656307249999	0.002110814884168526
-0.484595272093749	0.01341218659661944
-0.484534236937499	0.024721620717808795
-0.484473201781249	0.03602237470735746
-0.484412166624999	0.047311029196472336
-0.484351131468749	0.05859519176018091
-0.484290096312499	0.0698693813882025
-0.484229061156249	0.08111777719674125
-0.484168025999999	0.09233765882070755
-0.484106990843749	0.10353615325262217
-0.484045955687499	0.11470713359555033
-0.483984920531249	0.12583477618553954
-0.483923885374999	0.13691678486386064
-0.483862850218749	0.14796101870878728
-0.483801815062499	0.15896178169709368
-0.483740779906249	0.16990244561110457
-0.483679744749999	0.18077956433650036
-0.483618709593749	0.19160140678694068
-0.483557674437499	0.20236378661365562
-0.483496639281249	0.2130502296112886
-0.483435604124999	0.22365610172288236
-0.483374568968749	0.23418986193211916
-0.483313533812499	0.24464886985433798
-0.483252498656249	0.2550166207212249
-0.483191463499999	0.2652869166015454
-0.483130428343749	0.2754680553752161
-0.483069393187499	0.28555906925627195
-0.483008358031249	0.29554421330644104
-0.482947322874999	0.30541597923597474
-0.482886287718749	0.31518201042235183
-0.482825252562499	0.32484304282941456
-0.482764217406249	0.33438465115076754
-0.482703182249999	0.34379812949529265
-0.482642147093749	0.3530897166442201
-0.482581111937499	0.3622610810325144
-0.482520076781249	0.3712995830470789
-0.482459041624999	0.3801965305740452
-0.482398006468749	0.3889571192137736
-0.482336971312499	0.3975831684392318
-0.482275936156249	0.40606313374284914
-0.482214900999999	0.4143885499059097
-0.482153865843749	0.42256391707141755
-0.482092830687499	0.43059101664326976
-0.482031795531249	0.43845942828850787
-0.481970760374999	0.44616166920148875
-0.481909725218749	0.45370205624332827
-0.481848690062499	0.4610816657938596
-0.481787654906249	0.46829006243530047
-0.481726619749999	0.4753207184729973
-0.481665584593749	0.48217884464149374
-0.481604549437499	0.4888652902581075
-0.481543514281249	0.495368976500288
-0.481482479124999	0.5016839478077595
-0.481421443968749	0.5078170300618369
-0.481360408812499	0.5137694108458553
-0.481299373656249	0.5195284384801506
-0.481238338499999	0.5250878586577248
-0.481177303343749	0.530456938504807
-0.481116268187499	0.5356382192357272
-0.481055233031249	0.5406170494712395
-0.480994197874999	0.5453858143973886
-0.480933162718749	0.5499563618376224
-0.480872127562499	0.5543339124781917
-0.480811092406249	0.5585020437925202
-0.480750057249999	0.5624504413540191
-0.480689022093749	0.5661930037002979
-0.480627986937499	0.5697387542466532
-0.480566951781249	0.5730701717372533
-0.480505916624999	0.5761731945702224
-0.480444881468749	0.5790630549732347
-0.480383846312499	0.5817538667342175
-0.480322811156249	0.5842280324978006
-0.480261775999999	0.586466415775182
-0.480200740843749	0.5884841128315124
-0.480139705687499	0.5903013621179511
-0.480078670531249	0.5919023627675849
-0.480017635374999	0.5932623804590482
-0.479956600218749	0.594394443515626
-0.479895565062499	0.5953250667128044
-0.479834529906249	0.5960420246178532
-0.479773494749999	0.5965149625392624
-0.479712459593749	0.5967530860056358
-0.479651424437499	0.5967891293588669
-0.479590389281249	0.5966164214857308
-0.479529354124999	0.5961993679361062
-0.479468318968749	0.5955412403865938
-0.479407283812499	0.5946802082056437
-0.479346248656249	0.5936172521685147
-0.479285213499999	0.5923126778463317
-0.479224178343749	0.5907617391275928
-0.479163143187499	0.5890065238038641
-0.479102108031249	0.5870577385127761
-0.479041072874999	0.5848735252334395
-0.478980037718749	0.582439167724825
-0.478919002562499	0.5797983070331004
-0.478857967406249	0.5769729593513736
-0.478796932249999	0.5739217753416278
-0.478735897093749	0.5706190324591047
-0.478674861937499	0.5671071863539144
-0.478613826781249	0.5634202224095254
-0.478552791624999	0.5595200815459044
-0.478491756468749	0.5553694469156506
-0.478430721312499	0.5510064379921638
-0.478369686156249	0.5464772836066375
-0.478308650999999	0.5417506974418377
-0.478247615843749	0.536778153499053
-0.478186580687499	0.5315899472256511
-0.478125545531249	0.5262435368528628
-0.478064510374999	0.5207177340958086
-0.478003475218749	0.5149541996911046
-0.477942440062499	0.5089721343674644
-0.477881404906249	0.5028384352421211
-0.477820369749999	0.49654520114996886
-0.477759334593749	0.4900264736326999
-0.477698299437499	0.4832872094535431
-0.477637264281249	0.47640102118974964
-0.477576229124999	0.46937630566146393
-0.477515193968749	0.4621427575184193
-0.477454158812499	0.45468823178465007
-0.477393123656249	0.4470890944455404
-0.477332088499999	0.4393725140527583
-0.477271053343749	0.43146842923610274
-0.477210018187499	0.4233458644115248
-0.477148983031249	0.4150790342614159
-0.477087947874999	0.4067147652660918
-0.477026912718749	0.3981880546892282
-0.476965877562499	0.3894483808378561
-0.476904842406249	0.3805626830170044
-0.476843807249999	0.3715979564299212
-0.476782772093749	0.3625000008103269
-0.476721736937499	0.3531992272021649
-0.476660701781249	0.343749181615596
-0.476599666624999	0.33423502843566893
-0.476538631468749	0.3246192474521247
-0.476477596312499	0.31481612274077414
-0.476416561156249	0.304860133607736
-0.476355525999999	0.2948512139561865
-0.476294490843749	0.2847742391656611
-0.476233455687499	0.27453156401074813
-0.476172420531249	0.2641328605469268
-0.476111385374999	0.2536868269243185
-0.476050350218749	0.2432055571647579
-0.475989315062499	0.2325868674768643
-0.475928279906249	0.22181217576106638
-0.475867244749999	0.21099129971585082
-0.475806209593749	0.20016580265166106
-0.475745174437499	0.18923661836609634
-0.475684139281249	0.17815557768328918
-0.475623104124999	0.16702525246649141
-0.475562068968749	0.15591681722940096
-0.475501033812499	0.14474344316047955
-0.475439998656249	0.13342867054466984
-0.475378963499999	0.122058095513396
-0.475317928343749	0.11072910008282812
-0.475256893187499	0.09937655717749698
-0.475195858031249	0.08790094305659772
-0.475134822874999	0.07636235552464152
-0.475073787718749	0.06487804533572208
-0.475012752562499	0.053412185885478504
-0.474951717406249	0.041849923245860315
-0.474890682249999	0.03021936643187379
-0.474829647093749	0.018647797689354498
-0.474768611937499	0.007132895179502374
-0.474707576781249	-0.004444834714049183
-0.474646541624999	-0.016091560351622146
-0.474585506468749	-0.027680630966985496
-0.474524471312499	-0.03917975666366212
-0.474463436156249	-0.05070209413241081
-0.474402400999999	-0.06228738243293537
-0.474341365843749	-0.07382083575642066
-0.474280330687499	-0.08523889774791858
-0.474219295531249	-0.09663795505463489
-0.474158260374999	-0.1080861556475006
-0.474097225218749	-0.11949017109074903
-0.474036190062499	-0.13076182069153858
-0.473975154906249	-0.14197202797550412
-0.473914119749999	-0.1532089934903448
-0.473853084593749	-0.16440797860050885
-0.473792049437499	-0.17546629656751395
-0.473731014281249	-0.18642490237056572
-0.473669979124999	-0.19738106133144262
-0.473608943968749	-0.20830044130652853
-0.473547908812499	-0.2190767475112886
-0.473486873656249	-0.22972115233292964
-0.473425838499999	-0.24032993493941807
-0.473364803343749	-0.25089787260300106
-0.473303768187499	-0.2613244072653319
-0.473242733031249	-0.2715935092614147
-0.473181697874999	-0.2817918520711706
-0.473120662718749	-0.2919391915544266
-0.473059627562499	-0.3019484613848526
-0.472998592406249	-0.31178227675332987
-0.472937557249999	-0.32151132544103705
-0.472876522093749	-0.3311732255675056
-0.472815486937499	-0.3406991712943711
-0.472754451781249	-0.3500380994514768
-0.472693416624999	-0.3592415459304551
-0.472632381468749	-0.36835743114561953
-0.472571346312499	-0.3773371420562742
-0.472510311156249	-0.38612351894690705
-0.472449275999999	-0.3947484708445506
-0.472388240843749	-0.40326283710821315
-0.472327205687499	-0.41163718563166307
-0.472266170531249	-0.4198150076607189
-0.472205135374999	-0.42781088672525447
-0.472144100218749	-0.4356729066904306
-0.472083065062499	-0.4433876206095632
-0.472022029906249	-0.4509038156003885
-0.471960994749999	-0.45822267199334554
-0.471899959593749	-0.4653858592657
-0.471838924437499	-0.47239168754294975
-0.471777889281249	-0.47919713958572996
-0.471716854124999	-0.485794367366591
-0.471655818968749	-0.49221656208738573
-0.471594783812499	-0.4984693961907236
-0.471533748656249	-0.5045192022412892
-0.471472713499999	-0.510353506758514
-0.471411678343749	-0.515996934729485
-0.471350643187499	-0.5214584081987534
-0.471289608031249	-0.5267128602723546
-0.471228572874999	-0.53174686914945
-0.471167537718749	-0.5365778884140507
-0.471106502562499	-0.5412149813306211
-0.471045467406249	-0.5456398052409064
-0.470984432249999	-0.5498404790194119
-0.470923397093749	-0.553829572690688
-0.470862361937499	-0.5576146183819967
-0.470801326781249	-0.5611815960574359
-0.470740291624999	-0.5645210887981431
-0.470679256468749	-0.567643154084783
-0.470618221312499	-0.5705535172755524
-0.470557186156249	-0.5732403280717345
-0.470496150999999	-0.5756964633367034
-0.470435115843749	-0.5779313332345871
-0.470374080687499	-0.5799493832079071
-0.470313045531249	-0.5817393989392777
-0.470252010374999	-0.5832957453788193
-0.470190975218749	-0.584628378020036
-0.470129940062499	-0.5857415273195269
-0.470068904906249	-0.586623876051194
-0.470007869749999	-0.5872700862659698
-0.469946834593749	-0.5876909580407133
-0.469885799437499	-0.5878917415903302
-0.469824764281249	-0.5878611703356869
-0.469763729124999	-0.5875931110300593
-0.469702693968749	-0.5870986709205581
-0.469641658812499	-0.5863848547701138
-0.469580623656249	-0.5854411484082304
-0.469519588499999	-0.584260280632017
-0.469458553343749	-0.5828530330961424
-0.469397518187499	-0.5812283124059945
-0.469336483031249	-0.57937692531622
-0.469275447874999	-0.577290434969364
-0.469214412718749	-0.5749786335854942
-0.469153377562499	-0.5724520308187682
-0.469092342406249	-0.5697034980497799
-0.469031307249999	-0.5667241452157986
-0.468970272093749	-0.5635222179785171
-0.468909236937499	-0.5601090009343512
-0.468848201781249	-0.5564795971135751
-0.468787166624999	-0.5526252962720926
-0.468726131468749	-0.5485529062142901
