Time	Frequency
-0.5000518194374983	0.21820618392421542
-0.4999907842812483	0.21034804513193464
-0.4999297491249983	0.20240466164783463
-0.4998687139687483	0.19438509538213913
-0.4998076788124983	0.18632429968324354
-0.4997466436562483	0.17823065585243383
-0.4996856084999983	0.17007024883928884
-0.4996245733437483	0.16182348166614777
-0.4995635381874983	0.1535264818860365
-0.4995025030312483	0.1452203220902228
-0.4994414678749983	0.1368832247695648
-0.4993804327187483	0.128464019177623
-0.4993193975624983	0.1199725302127399
-0.4992583624062483	0.1114744278338509
-0.4991973272499983	0.10298666520254339
-0.4991362920937483	0.09444611489604239
-0.4990752569374983	0.08581599916125174
-0.4990142217812483	0.07715776167159269
-0.4989531866249983	0.06853782034580891
-0.4988921514687483	0.05991615094087966
-0.4988311163124983	0.051210313350577574
-0.4987700811562483	0.042439590487564474
-0.4987090459999983	0.033704561852883695
-0.4986480108437483	0.02502319100568818
-0.4985869756874983	0.01629741528815484
-0.4985259405312483	0.007479027471226565
-0.4984649053749983	-0.001338622676146602
-0.4984038702187483	-0.010067970056789496
-0.4983428350624983	-0.01877490330993097
-0.4982817999062483	-0.02757079537123151
-0.4982207647499983	-0.036418667811250284
-0.4981597295937483	-0.04518332829897768
-0.4980986944374983	-0.053854200712584226
-0.4980376592812483	-0.0625663730477445
-0.4979766241249983	-0.07137188899991838
-0.4979155889687483	-0.08014169293777536
-0.4978545538124983	-0.08877383716994566
-0.4977935186562483	-0.09736526199693711
-0.4977324834999983	-0.10605026724547072
-0.4976714483437483	-0.1147678587106753
-0.4976104131874983	-0.12335399585457435
-0.4975493780312483	-0.1318136538925822
-0.4974883428749983	-0.14031414525704997
-0.4974273077187483	-0.14890149382208132
-0.4973662725624983	-0.15741409557300545
-0.4973052374062483	-0.16574673661872405
-0.4972442022499983	-0.17402653965340903
-0.4971831670937483	-0.18239932404509876
-0.4971221319374983	-0.19077890290919175
-0.4970610967812483	-0.19898400846275313
-0.4970000616249983	-0.20703910743136134
-0.4969390264687483	-0.21513252260106203
-0.4968779913124983	-0.22329669570499414
-0.4968169561562483	-0.2313472232162529
-0.4967559209999983	-0.2391875116620745
-0.4966948858437483	-0.2469688844983323
-0.4966338506874983	-0.2548339848063702
-0.4965728155312483	-0.26267238546562516
-0.4965117803749983	-0.2703009104279849
-0.4964507452187483	-0.2777676837502834
-0.4963897100624983	-0.28526828117284453
-0.4963286749062483	-0.29281372066827405
-0.4962676397499983	-0.3002082972357563
-0.4962066045937483	-0.3073747126409955
-0.4961455694374983	-0.31447991699979033
-0.4960845342812483	-0.32165061645277454
-0.4960234991249983	-0.3287573955052761
-0.4959624639687483	-0.3356295711468116
-0.4959014288124983	-0.34233799998101017
-0.4958403936562483	-0.3490711266689251
-0.4957793584999983	-0.3558150823616953
-0.4957183233437483	-0.3623756104861009
-0.4956572881874983	-0.36870206292625124
-0.4955962530312483	-0.37496745912088253
-0.4955352178749983	-0.38127289566164974
-0.4954741827187483	-0.38747589450454234
-0.4954131475624983	-0.3934288701596872
-0.4953521124062483	-0.3992233355116157
-0.4952910772499983	-0.4050307110997308
-0.4952300420937483	-0.4108113341106017
-0.4951690069374983	-0.4163808625029538
-0.4951079717812483	-0.42171822574527495
-0.4950469366249983	-0.42699591162659606
-0.4949859014687483	-0.4322856107951328
-0.4949248663124983	-0.4374368286963935
-0.4948638311562483	-0.4423294674777083
-0.4948027959999983	-0.4470721614261739
-0.4947417608437483	-0.4518147729055812
-0.4946807256874983	-0.4564942932748465
-0.4946196905312483	-0.4609408081371505
-0.4945586553749983	-0.46516127965608
-0.4944976202187483	-0.46932347559663246
-0.4944365850624983	-0.4734708521992197
-0.4943755499062483	-0.4774491597573619
-0.4943145147499983	-0.48116500183279354
-0.4942534795937483	-0.4847394835493843
-0.4941924444374983	-0.4883011038766235
-0.4941314092812483	-0.4917688653035034
-0.4940703741249983	-0.4949885095082876
-0.4940093389687483	-0.49798963680129954
-0.4939483038124983	-0.5009323329769692
-0.4938872686562483	-0.5038365053943966
-0.4938262334999983	-0.5065488537549648
-0.4937651983437483	-0.5089994685217762
-0.4937041631874983	-0.5113160772824521
-0.4936431280312483	-0.5136073026978188
-0.4935820928749983	-0.5157807161742579
-0.4935210577187483	-0.5176983110435486
-0.4934600225624983	-0.5194056748766629
-0.4933989874062483	-0.5210524918112833
-0.4933379522499983	-0.5226412867144891
-0.4932769170937483	-0.524024635333424
-0.4932158819374983	-0.5251514913913319
-0.4931548467812483	-0.5261495804119926
-0.4930938116249983	-0.5271099474215247
-0.4930327764687483	-0.5279361581307483
-0.4929717413124983	-0.5285068578941459
-0.4929107061562483	-0.5288766534054954
-0.4928496709999983	-0.5291820772682759
-0.4927886358437483	-0.5294139148072025
-0.4927276006874983	-0.5294351320893648
-0.4926665655312483	-0.5292097997375343
-0.4926055303749983	-0.5288601979075229
-0.4925444952187483	-0.5284614919034034
-0.4924834600624983	-0.5279189111431232
-0.4924224249062483	-0.527128151592242
-0.4923613897499983	-0.5261476436222173
-0.4923003545937483	-0.5250984842229105
-0.4922393194374983	-0.5239638876272025
-0.4921782842812483	-0.5226209914773906
-0.4921172491249983	-0.5210463120992452
-0.4920562139687483	-0.5193520245318373
-0.4919951788124983	-0.5175983178320632
-0.4919341436562483	-0.515696889312202
-0.4918731084999983	-0.5135613298477741
-0.4918120733437483	-0.5112497108357218
-0.4917510381874983	-0.5088655524135333
-0.4916900030312483	-0.5063875109029023
-0.4916289678749983	-0.5037095862843263
-0.4915679327187483	-0.50081896502349
-0.4915068975624983	-0.4978151194600761
-0.4914458624062483	-0.49474414146202744
-0.4913848272499983	-0.49152639139329357
-0.4913237920937483	-0.48809283094675904
-0.4912627569374983	-0.48449914107609454
-0.4912017217812483	-0.4808315639734854
-0.4911406866249983	-0.47706634899773476
-0.4910796514687483	-0.4731144819753814
-0.4910186163124983	-0.46897145166892074
-0.4909575811562483	-0.4647231169737962
-0.4908965459999983	-0.46040370724012253
-0.4908355108437483	-0.45594394013009665
-0.4907744756874983	-0.4512903997887752
-0.4907134405312483	-0.44649408787126027
-0.4906524053749983	-0.44162494581696654
-0.4905913702187483	-0.43665923056060385
-0.4905303350624983	-0.4315243793392698
-0.4904692999062483	-0.4262215918680392
-0.4904082647499983	-0.4208233771394959
-0.4903472295937483	-0.4153551315393692
-0.4902861944374983	-0.4097580468610499
-0.4902251592812483	-0.4039904829868435
-0.4901641241249983	-0.3980975651588488
-0.4901030889687483	-0.3921372514575273
-0.4900420538124983	-0.38608853205482035
-0.4899810186562483	-0.37989126291287184
-0.4899199834999983	-0.3735480355178356
-0.4898589483437483	-0.36712063181687893
-0.4897979131874983	-0.36063049273777686
-0.4897368780312483	-0.35402808830557103
-0.4896758428749983	-0.34727881261352955
-0.4896148077187483	-0.34042206402306047
-0.4895537725624983	-0.33350818515357866
-0.4894927374062483	-0.3265195228632421
-0.4894317022499983	-0.3194041628173083
-0.4893706670937483	-0.3121641857146485
-0.4893096319374983	-0.30485405499609497
-0.4892485967812483	-0.29749433907603273
-0.4891875616249983	-0.2900428295143143
-0.4891265264687483	-0.28246813877434535
-0.4890654913124983	-0.2748037273834476
-0.4890044561562483	-0.26709566127378337
-0.4889434209999983	-0.25933128021842244
-0.4888823858437483	-0.2514644754816194
-0.4888213506874983	-0.2434947265973816
-0.4887603155312483	-0.2354708186134503
-0.4886992803749983	-0.22741440230357324
-0.4886382452187483	-0.21928893941403202
-0.4885772100624983	-0.21106402477293656
-0.4885161749062483	-0.20276878324753608
-0.4884551397499983	-0.1944472929937276
-0.4883941045937483	-0.18609031060433795
-0.4883330694374983	-0.17765513983133693
-0.4882720342812483	-0.1691398103194922
-0.4882109991249983	-0.16058951701085464
-0.4881499639687483	-0.1520261432779059
-0.4880889288124983	-0.14341729551409452
-0.4880278936562483	-0.13473415257080626
-0.4879668584999983	-0.12600211811129214
-0.4879058233437483	-0.11726220601532887
-0.4878447881874983	-0.10850815073126648
-0.4877837530312483	-0.09970221890880684
-0.4877227178749983	-0.0908415696521091
-0.4876616827187483	-0.08196579755313411
-0.4876006475624983	-0.07309559894220125
-0.4875396124062483	-0.06420443381802442
-0.4874785772499983	-0.055267398224471395
-0.4874175420937483	-0.04630491865299196
-0.4873565069374983	-0.037351801602615226
-0.4872954717812483	-0.028405335003864822
-0.4872344366249983	-0.019436034368490573
-0.4871734014687483	-0.010440091762341893
-0.4871123663124983	-0.0014478568598757537
-0.4870513311562483	0.007521965118348299
-0.4869902959999983	0.01648655239509362
-0.4869292608437483	0.025465541155423942
-0.4868682256874983	0.0344467340800996
-0.4868071905312483	0.04340363848442788
-0.4867461553749983	0.052332531397461524
-0.4866851202187483	0.06125156510972049
-0.4866240850624983	0.07016826089546195
-0.4865630499062483	0.07906626742866632
-0.4865020147499983	0.08792731294768612
-0.4864409795937483	0.09675312954525536
-0.4863799444374983	0.1055577313692853
-0.4863189092812483	0.11434396264850002
-0.4862578741249983	0.12309634736484483
-0.4861968389687483	0.13179878891479507
-0.4861358038124983	0.1404540487870863
-0.4860747686562483	0.1490780267625663
-0.4860137334999983	0.15767327130276432
-0.4859526983437483	0.16621830212992705
-0.4858916631874983	0.17469377141142978
-0.4858306280312483	0.18311121805996258
-0.4857695928749983	0.1914957341344366
-0.4857085577187483	0.1998413284330157
-0.4856475225624983	0.20811100893894674
-0.4855864874062483	0.21629108806888142
-0.4855254522499983	0.2244150776246146
-0.4854644170937483	0.2325087903203655
-0.4854033819374983	0.24053912200755778
-0.4853423467812483	0.24845872230661112
-0.4852813116249983	0.2562833774624563
-0.4852202764687483	0.2640692930875806
-0.4851592413124983	0.27181559248238424
-0.4850982061562483	0.2794544088061383
-0.4850371709999983	0.2869578543107021
-0.4849761358437483	0.29438773772237503
-0.4849151006874983	0.3017933177236638
-0.4848540655312483	0.3091196162037158
-0.4847930303749983	0.31628891052441643
-0.4847319952187483	0.3233306810762374
-0.4846709600624983	0.3303368386711614
-0.4846099249062483	0.3373035670276646
-0.4845488897499983	0.34412584300767524
-0.4844878545937483	0.3507679197329717
-0.4844268194374983	0.35732755962049845
-0.4843657842812483	0.3638733252632294
-0.4843047491249983	0.3703201317359753
-0.4842437139687483	0.37656218986773105
-0.4841826788124983	0.3826512415694389
-0.4841216436562483	0.38871450904866783
-0.4840606084999983	0.39473690624573
-0.4839995733437483	0.40057505310721075
-0.4839385381874983	0.4061934419645506
-0.4838775030312483	0.41172872939907695
-0.4838164678749983	0.4172613303475694
-0.4837554327187483	0.4226714582115086
-0.4836943975624983	0.4278318152006858
-0.4836333624062483	0.4328227987002518
-0.4835723272499983	0.43780175190793835
-0.4835112920937483	0.44273453113896877
-0.4834502569374983	0.4474433475984734
-0.4833892217812483	0.4519021080271153
-0.4833281866249983	0.45628398632443623
-0.4832671514687483	0.46067108883850727
-0.4832061163124983	0.4649096758325796
-0.4831450811562483	0.4688620365649429
-0.4830840459999983	0.4726385436685499
-0.4830230108437483	0.4764149197169923
-0.4829619756874983	0.48013414413905964
-0.4829009405312483	0.4835960026480438
-0.4828399053749983	0.4867910161691383
-0.4827788702187483	0.48991810744150793
-0.4827178350624983	0.4930502900625775
-0.4826567999062483	0.4960079389251065
-0.4825957647499983	0.4986569254973953
-0.4825347295937483	0.501133698672653
-0.4824736944374983	0.5036167004551783
-0.4824126592812483	0.5060251622655565
-0.4823516241249983	0.5081521454691533
-0.4822905889687483	0.5100105286720333
-0.4822295538124983	0.5118107717149006
-0.4821685186562483	0.5136067961202894
-0.4821074834999983	0.5152046772398379
-0.4820464483437483	0.5164874501611944
-0.4819854131874983	0.5176100994866778
-0.4819243780312483	0.518737927325438
-0.4818633428749983	0.5197689969951016
-0.4818023077187483	0.5205060953376918
-0.4817412725624983	0.5209870992373974
-0.4816802374062483	0.5214190071011204
-0.4816192022499983	0.5218295124121806
-0.4815581670937483	0.5220223461063501
-0.4814971319374983	0.5219081134090695
-0.4814360967812483	0.5216524573910072
-0.4813750616249983	0.5213955350985776
-0.4813140264687483	0.5210178753536124
-0.4812529913124983	0.5203440194581047
-0.4811919561562483	0.5194370768209373
-0.4811309209999983	0.5184898977093894
-0.4810698858437483	0.5175008133951495
-0.4810088506874983	0.5162798339218216
-0.4809478155312483	0.5147699879189519
-0.4808867803749983	0.5131411458300893
-0.4808257452187483	0.5115027493630075
-0.4807647100624983	0.5097222324053053
-0.4807036749062483	0.5076515749811387
-0.4806426397499983	0.5053763990484307
-0.4805816045937483	0.5030700542519216
-0.4805205694374983	0.5007029254966893
-0.4804595342812483	0.49809597408952466
-0.4803984991249983	0.49522393393069125
-0.4803374639687483	0.492256836088981
-0.4802764288124983	0.4892739777278663
-0.4802153936562483	0.48613373104076324
-0.4801543584999983	0.4827148923689139
-0.4800933233437483	0.47912080200986806
-0.4800322881874983	0.4755053360742757
-0.4799712530312483	0.4718166068063974
-0.4799102178749983	0.46788803412057456
-0.4798491827187483	0.46372011669153385
-0.4797881475624983	0.45947944844419875
-0.4797271124062483	0.4552202795904105
-0.4796660772499983	0.4507972652361516
-0.4796050420937483	0.44611259136882747
-0.4795440069374983	0.4412807517833014
-0.4794829717812483	0.43643729279686694
-0.4794219366249983	0.43151514397215457
-0.4793609014687483	0.4263614431920808
-0.4792998663124983	0.4209954386549799
-0.4792388311562483	0.4155764416289366
-0.4791777959999983	0.41013952352297034
-0.4791167608437483	0.4045417202764469
-0.4790557256874983	0.3987048230675796
-0.4789946905312483	0.3927469110340216
-0.4789336553749983	0.38678624051387284
-0.4788726202187483	0.3807482613227036
-0.4788115850624983	0.3744953298291892
-0.4787505499062483	0.3680584097879623
-0.4786895147499983	0.36158563231919105
-0.4786284795937483	0.35509835262055367
-0.4785674444374983	0.3484616553889391
-0.4785064092812483	0.3416136342017252
-0.4784453741249983	0.3346692673159443
-0.4783843389687483	0.32773011658306717
-0.4783233038124983	0.3207205890911656
-0.4782622686562483	0.3135200865326154
-0.4782012334999983	0.3061659753082282
-0.4781401983437483	0.29879140944013527
-0.4780791631874983	0.2914073770604262
-0.4780181280312483	0.28389168918605506
-0.4779570928749983	0.27619725847013005
-0.4778960577187483	0.2684310290705751
-0.4778350225624983	0.26067752558472645
-0.4777739874062483	0.25286451028472967
-0.4777129522499983	0.24489008582146177
-0.4776519170937483	0.23679438961823962
-0.4775908819374983	0.22869292958775037
-0.4775298467812483	0.22058887744206326
-0.4774688116249983	0.21237575516056717
-0.4774077764687483	0.20401961569644578
-0.4773467413124983	0.19561630391716006
-0.4772857061562483	0.18723397086519844
-0.4772246709999983	0.1788062658563687
-0.4771636358437483	0.17024972620799608
-0.4771026006874983	0.16160508303851095
-0.4770415655312483	0.15297023019948927
-0.4769805303749983	0.1443423737589006
-0.4769194952187483	0.1356308882435508
-0.4768584600624983	0.1268131052559799
-0.4767974249062483	0.11797275282029669
-0.4767363897499983	0.109163033988148
-0.4766753545937483	0.10032527421192688
-0.4766143194374983	0.09139364240701575
-0.4765532842812483	0.08240717706934034
-0.4764922491249983	0.0734460475055025
-0.4764312139687483	0.06450353798170959
-0.4763701788124983	0.055505143016994496
-0.4763091436562483	0.046437099966500014
-0.4762481084999983	0.037370524883478216
-0.4761870733437483	0.028346689801442903
-0.4761260381874983	0.019315681415138827
-0.4760650030312483	0.010225543814714919
-0.4760039678749983	0.0011109608341359999
-0.4759429327187483	-0.007962085253773026
-0.4758818975624983	-0.017000113161197455
-0.4758208624062483	-0.026064436515367342
-0.4757598272499983	-0.035165092908589754
-0.4756987920937483	-0.04424172320427656
-0.4756377569374983	-0.05325969017384442
-0.4755767217812483	-0.06226135306599326
-0.4755156866249983	-0.07129052866870005
-0.4754546514687483	-0.08031668918291227
-0.4753936163124983	-0.08928206550379186
-0.4753325811562483	-0.09819182180562287
-0.4752715459999983	-0.10709965826008744
-0.4752105108437483	-0.11601507591114134
-0.4751494756874983	-0.1248848398942922
-0.4750884405312483	-0.13367659865527312
-0.4750274053749983	-0.14242642137686795
-0.4749663702187483	-0.15117425194592732
-0.4749053350624983	-0.15989477770938965
-0.4748442999062483	-0.16853570239803395
-0.4747832647499983	-0.17709883954506622
-0.4747222295937483	-0.18563181597368703
-0.4746611944374983	-0.1941457182385686
-0.4746001592812483	-0.20259360103537108
-0.4745391241249983	-0.21094362852580348
-0.4744780889687483	-0.2192264472748415
-0.4744170538124983	-0.22748012545610768
-0.4743560186562483	-0.23568386338500733
-0.4742949834999983	-0.24378871552378364
-0.4742339483437483	-0.25179382764813407
-0.4741729131874983	-0.2597431769498182
-0.4741118780312483	-0.267649289958026
-0.4740508428749983	-0.27546932963859977
-0.4739898077187483	-0.2831716431908993
-0.4739287725624983	-0.2907831181516231
-0.4738677374062483	-0.29834066912180024
-0.4738067022499983	-0.30582736222695034
-0.4737456670937483	-0.31319747656415675
-0.4736846319374983	-0.3204478333637788
-0.4736235967812483	-0.32761811143213554
-0.4735625616249983	-0.33472152675052586
-0.4735015264687483	-0.3417206324812781
-0.4734404913124983	-0.34858610861099426
-0.4733794561562483	-0.3553402982085106
-0.4733184209999983	-0.36201583002546645
-0.4732573858437483	-0.36859965589859206
-0.4731963506874983	-0.375052769473274
-0.4731353155312483	-0.3813703718396825
-0.4730742803749983	-0.38758456131834684
-0.4730132452187483	-0.3937083780716688
-0.4729522100624983	-0.3997133338172427
-0.4728911749062483	-0.40557380759439216
-0.4728301397499983	-0.41130398541388585
-0.4727691045937483	-0.4169301440632711
-0.4727080694374983	-0.4224465099830852
-0.4726470342812483	-0.4278241440038322
-0.4725859991249983	-0.43305413831781986
-0.4725249639687483	-0.4381565052470478
-0.4724639288124983	-0.44314550920798823
-0.4724028936562483	-0.44800718706159987
-0.4723418584999983	-0.45271987049574147
-0.4722808233437483	-0.45728354198136767
-0.4722197881874983	-0.461716153167755
-0.4721587530312483	-0.4660254072684367
-0.4720977178749983	-0.4701962283816341
-0.4720366827187483	-0.474210117017006
-0.4719756475624983	-0.4780699621343085
-0.4719146124062483	-0.4817956504225239
-0.4718535772499983	-0.4853938168824387
-0.4717925420937483	-0.48884369926405435
-0.4717315069374983	-0.49212411154431007
-0.4716704717812483	-0.49524637720797343
-0.4716094366249983	-0.498239769605171
-0.4715484014687483	-0.5011035021379242
-0.4714873663124983	-0.503800733963178
-0.4714263311562483	-0.5063140558126512
-0.4713652959999983	-0.5086777296657905
-0.4713042608437483	-0.5109253111670206
-0.4712432256874983	-0.5130293831554733
-0.4711821905312483	-0.5149387081751878
-0.4711211553749983	-0.5166634211509409
-0.4710601202187483	-0.5182649845997709
-0.4709990850624983	-0.5197542499853398
-0.4709380499062483	-0.5210647507797046
-0.4708770147499983	-0.5221587234354557
-0.4708159795937483	-0.5230960253148611
-0.4707549444374983	-0.5239398293345073
-0.4706939092812483	-0.524645727967447
-0.4706328741249983	-0.5251273943133887
-0.4705718389687483	-0.5254027129482207
-0.4705108038124983	-0.5255724196971997
-0.4704497686562483	-0.5256519630485869
-0.4703887334999983	-0.5255367049133478
-0.4703276983437483	-0.5251734086823828
-0.4702666631874983	-0.5246569653664239
-0.4702056280312483	-0.5240776192681161
-0.4701445928749983	-0.5233643029147772
-0.4700835577187483	-0.5223959341762044
-0.4700225225624983	-0.5212075803243501
-0.4699614874062483	-0.519941022323432
-0.4699004522499983	-0.5186075677106463
-0.4698394170937483	-0.5170607375610611
-0.4697783819374983	-0.5152395014070857
-0.4697173467812483	-0.5132790516354984
