Time	Frequency
-0.5000084816875017	-0.304339108062852
-0.49994744653125167	-0.31509555197139083
-0.49988641137500167	-0.3257444636935224
-0.49982537621875167	-0.336174640453247
-0.49976434106250167	-0.34639419984060016
-0.49970330590625167	-0.35650716277328764
-0.49964227075000167	-0.36653176262266274
-0.49958123559375167	-0.37636426774440296
-0.49952020043750167	-0.3859457327552785
-0.49945916528125167	-0.39535148339324594
-0.49939813012500167	-0.40465640294074545
-0.49933709496875167	-0.4138036384421065
-0.49927605981250167	-0.4226943575615429
-0.49921502465625167	-0.4313455290548477
-0.49915398950000167	-0.43985274706806365
-0.49909295434375167	-0.4482236945972561
-0.49903191918750167	-0.4563609547482888
-0.49897088403125167	-0.4642193766489416
-0.49890984887500167	-0.47187353039929525
-0.49884881371875167	-0.47938538839789224
-0.49878777856250167	-0.4866959208559382
-0.49872674340625167	-0.4937200714137538
-0.49866570825000167	-0.5004831160462864
-0.49860467309375167	-0.5070709419898087
-0.49854363793750167	-0.5134808104386204
-0.49848260278125167	-0.5196228175748097
-0.49842156762500167	-0.5254663934227689
-0.49836053246875167	-0.5310851583343063
-0.49829949731250167	-0.536527728463101
-0.49823846215625167	-0.5417328994797926
-0.49817742700000167	-0.5466294934586803
-0.49811639184375167	-0.5512512176931978
-0.49805535668750167	-0.5556748123317983
-0.49799432153125167	-0.5598877330741276
-0.49793328637500167	-0.5638072647881638
-0.49787225121875167	-0.5674163858870127
-0.49781121606250167	-0.5707878539416313
-0.49775018090625167	-0.573958482339572
-0.49768914575000167	-0.5768657462241334
-0.49762811059375167	-0.5794512644789394
-0.49756707543750167	-0.5817558368663223
-0.49750604028125167	-0.5838476704344241
-0.49744500512500167	-0.5857062157510136
-0.49738396996875167	-0.587256178255226
-0.49732293481250167	-0.5884925622182101
-0.49726189965625167	-0.5894866162628786
-0.49720086450000167	-0.5902646466080985
-0.49713982934375167	-0.5907639181548782
-0.49707879418750167	-0.5909380361406432
-0.49701775903125167	-0.5908336664497331
-0.49695672387500167	-0.5905109776599614
-0.49689568871875167	-0.5899429078621446
-0.49683465356250167	-0.5890617182489734
-0.49677361840625167	-0.5878730219694671
-0.49671258325000167	-0.5864459671695885
-0.49665154809375167	-0.5847975912122059
-0.49659051293750167	-0.5828658747580351
-0.49652947778125167	-0.5806154848789757
-0.49646844262500167	-0.5780979061880867
-0.49640740746875167	-0.5753659938187705
-0.49634637231250167	-0.5723874618197657
-0.49628533715625167	-0.5691017265321122
-0.49622430200000167	-0.5655234253307477
-0.49616326684375167	-0.5617193863487274
-0.49610223168750167	-0.5576990486673391
-0.49604119653125167	-0.5534022202853378
-0.49598016137500167	-0.5488033665578894
-0.49591912621875167	-0.5439568041151681
-0.49585809106250167	-0.5389082196293646
-0.49579705590625167	-0.5336221066993607
-0.49573602075000167	-0.5280458826298347
-0.49567498559375167	-0.5222017518717155
-0.49561395043750167	-0.5161527402959827
-0.49555291528125167	-0.5099012725912202
-0.49549188012500167	-0.5033904207465448
-0.49543084496875167	-0.4966043076275035
-0.49536980981250167	-0.48959868701035336
-0.49530877465625167	-0.48241174358189465
-0.49524773950000167	-0.4750058242411447
-0.49518670434375167	-0.4673368767238446
-0.49512566918750167	-0.45943368157214054
-0.49506463403125167	-0.45135433678735004
-0.49500359887500167	-0.4430944604309051
-0.49494256371875167	-0.43460139052016367
-0.49488152856250167	-0.4258692308542299
-0.49482049340625167	-0.41695436961576465
-0.49475945825000167	-0.4078866270941443
-0.49469842309375167	-0.3986264310928572
-0.49463738793750167	-0.3891388630956178
-0.49457635278125167	-0.3794588946741691
-0.49451531762500167	-0.3696389225685257
-0.49445428246875167	-0.3596680296618356
-0.49439324731250167	-0.3494984836810231
-0.49433221215625167	-0.33913372432102984
-0.49427117700000167	-0.32862955735072036
-0.49421014184375167	-0.31800754792032876
-0.49414910668750167	-0.3072271314410286
-0.49408807153125167	-0.2962625935011398
-0.49402703637500167	-0.28515418596228553
-0.49396600121875167	-0.27394795933120786
-0.49390496606250167	-0.26262679088115176
-0.49384393090625167	-0.25114839416212553
-0.49378289575000167	-0.23952522612514962
-0.49372186059375167	-0.22781150882003387
-0.49366082543750167	-0.21602012419383032
-0.49359979028125167	-0.20411005411844216
-0.49353875512500167	-0.1920650226357205
-0.49347771996875167	-0.17993004689312658
-0.49341668481250167	-0.16774440747868655
-0.49335564965625167	-0.15548464260330974
-0.49329461450000167	-0.14311365630341072
-0.49323357934375167	-0.13065254239484872
-0.49317254418750167	-0.11815404995188562
-0.49311150903125167	-0.10562300516062792
-0.49305047387500167	-0.09301781392522074
-0.49298943871875167	-0.08033028410994095
-0.49292840356250167	-0.06760916903395728
-0.49286736840625167	-0.05488745287669299
-0.49280633325000167	-0.042136095384978096
-0.49274529809375167	-0.029322953750777262
-0.49268426293750167	-0.016477358302131342
-0.49262322778125167	-0.003650362109635746
-0.49256219262500167	0.009162259271330596
-0.49250115746875167	0.022003369319106895
-0.49244012231250167	0.03487194611930813
-0.49237908715625167	0.04771446462790349
-0.49231805200000167	0.060505438782893724
-0.49225701684375167	0.07328119742115079
-0.49219598168750167	0.08606899899598158
-0.49213494653125167	0.0988306226025906
-0.49207391137500167	0.1115166337573136
-0.49201287621875167	0.12414053340398956
-0.49195184106250167	0.13674680676616574
-0.49189080590625167	0.14932587068691094
-0.49182977075000167	0.16181975033368948
-0.49176873559375167	0.17421022165633043
-0.49170770043750167	0.18654102586168606
-0.49164666528125167	0.19883502993096808
-0.49158563012500167	0.21104521523256323
-0.49152459496875167	0.22312356916594536
-0.49146355981250167	0.23509318200348212
-0.49140252465625167	0.24700119133299356
-0.49134148950000167	0.2588299262111308
-0.49128045434375167	0.2705162015125625
-0.49121941918750167	0.2820485005207077
-0.49115838403125167	0.29347885446355726
-0.49109734887500167	0.3048269890718685
-0.49103631371875167	0.3160369019147813
-0.49097527856250167	0.32706130166984804
-0.49091424340625167	0.33793359481204377
-0.49085320825000167	0.3487046011986289
-0.49079217309375167	0.35934809354664526
-0.49073113793750167	0.3697947792726675
-0.49067010278125167	0.3800405170977171
-0.49060906762500167	0.3901470836787805
-0.49054803246875167	0.40013114394191773
-0.49048699731250167	0.4099267745572508
-0.49042596215625167	0.41948721498627933
-0.49036492700000167	0.4288571586599296
-0.49030389184375167	0.4380921278734298
-0.49024285668750167	0.4471572338130114
-0.49018182153125167	0.45597635569422496
-0.49012078637500167	0.4645528335706568
-0.49005975121875167	0.4729592533725567
-0.48999871606250167	0.48120969674555386
-0.48993768090625167	0.4892274749864226
-0.48987664575000167	0.4969659555021535
-0.48981561059375167	0.5044823198879269
-0.48975457543750167	0.5118377029259982
-0.48969354028125167	0.518987668463483
-0.48963250512500167	0.5258484520104274
-0.48957146996875167	0.5324320047479462
-0.48951043481250167	0.5388232141266531
-0.48944939965625167	0.5450332106690948
-0.48938836450000167	0.5509732318174525
-0.48932732934375167	0.5565968471164675
-0.48926629418750167	0.561975028739681
-0.48920525903125167	0.5671751241971689
-0.48914422387500167	0.5721425506120872
-0.48908318871875167	0.5767852945897676
-0.48902215356250167	0.5811243576096814
-0.48896111840625167	0.5852577905036551
-0.48890008325000167	0.5891937510984842
-0.48883904809375167	0.5928308840570355
-0.48877801293750167	0.5961231923328107
-0.48871697778125167	0.5991561523147148
-0.48865594262500167	0.6020033085931348
-0.48859490746875167	0.6045994838397961
-0.48853387231250167	0.606844784517079
-0.48847283715625167	0.6087698042597377
-0.48841180200000167	0.6104852200420003
-0.48835076684375167	0.6119957014491346
-0.48828973168750167	0.6131882568041059
-0.48822869653125167	0.6140183367829334
-0.48816766137500167	0.6145849394604251
-0.48810662621875167	0.6149664003258093
-0.48804559106250167	0.6150880308175918
-0.48798455590625167	0.6148441648049902
-0.48792352075000167	0.6142743214347463
-0.48786248559375167	0.6134992164610149
-0.48780145043750167	0.6125201867517253
-0.48774041528125167	0.6112158382392818
-0.48767938012500167	0.6095440130495415
-0.48761834496875167	0.6076138283234865
-0.48755730981250167	0.6055060783594293
-0.48749627465625167	0.6031394397037834
-0.48743523950000167	0.6004061919347187
-0.48737420434375167	0.5973531947373121
-0.48731316918750167	0.5941065720938757
-0.48725213403125167	0.5906641573288322
-0.48719109887500167	0.5869010335253878
-0.48713006371875167	0.5827796074947641
-0.48706902856250167	0.5784148301939435
-0.48700799340625167	0.5738859547666841
-0.48694695825000167	0.5691079607314921
-0.48688592309375167	0.5639762862059918
-0.48682488793750167	0.558543838087931
-0.48676385278125167	0.5529362225705902
-0.48670281762500167	0.5471469957228928
-0.48664178246875167	0.5410533085116763
-0.48658074731250167	0.5346246443332299
-0.48651971215625167	0.5279770698508393
-0.48645867700000167	0.521184243433941
-0.48639764184375167	0.5141606738720536
-0.48633660668750167	0.5068099842205491
-0.48627557153125167	0.4991896143916075
-0.48621453637500167	0.4914189797666052
-0.48615350121875167	0.483486569423339
-0.48609246606250167	0.4752767705529407
-0.48603143090625167	0.4667686057574738
-0.48597039575000167	0.4580747799518914
-0.48590936059375167	0.44925924936546896
-0.48584832543750167	0.44023885102330773
-0.48578729028125167	0.4309300989036652
-0.48572625512500167	0.42139392788569013
-0.48566521996875167	0.41173884672300703
-0.48560418481250167	0.4019472886418122
-0.48554314965625167	0.391914313140496
-0.48548211450000167	0.3816304293321553
-0.48542107934375167	0.3712027564947844
-0.48536004418750167	0.36068279286347227
-0.48529900903125167	0.3499901766519198
-0.48523797387500167	0.33905662393743274
-0.48517693871875167	0.327946605211535
-0.48511590356250167	0.31675546439732416
-0.48505486840625167	0.30545906264169836
-0.48499383325000167	0.2939649517303682
-0.48493279809375167	0.28227550529705825
-0.48487176293750167	0.27049032354446384
-0.48481072778125167	0.2586475102880526
-0.48474969262500167	0.24667059880448491
-0.48468865746875167	0.23450710815753667
-0.48462762231250167	0.22222423827493173
-0.48456658715625167	0.20990343742367726
-0.48450555200000167	0.19751383690655996
-0.48444451684375167	0.18497533218448
-0.48438348168750167	0.17230221802900944
-0.48432244653125167	0.15958696908670744
-0.48426141137500167	0.14685411698371123
-0.48420037621875167	0.13403012001382272
-0.48413934106250167	0.12107752067175583
-0.48407830590625167	0.10806648680861235
-0.48401727075000167	0.09506554636739382
-0.48395623559375167	0.0820371704887586
-0.48389520043750167	0.06891207303759804
-0.48383416528125167	0.055715020639947085
-0.48377313012500167	0.042531675369864116
-0.48371209496875167	0.02937463982553704
-0.48365105981250167	0.016173828117179878
-0.48359002465625167	0.0029050035195165376
-0.48352898950000167	-0.010360512114938937
-0.48346795434375167	-0.02356650771352682
-0.48340691918750167	-0.036755497632993926
-0.48334588403125167	-0.04998628214628874
-0.48328484887500167	-0.06322561312895165
-0.48322381371875167	-0.07639507906513397
-0.48316277856250167	-0.08949263615985165
-0.48310174340625167	-0.10258481171324053
-0.48304070825000167	-0.11568454739757576
-0.48297967309375167	-0.12872035227580428
-0.48291863793750167	-0.1416469155484927
-0.48285760278125167	-0.15451052438025908
-0.48279656762500167	-0.16736071929910154
-0.48273553246875167	-0.1801576509862663
-0.48267449731250167	-0.19282998338242202
-0.48261346215625167	-0.20538487856265156
-0.48255242700000167	-0.21788552239855896
-0.48249139184375167	-0.23033532888120914
-0.48243035668750167	-0.2426634043471404
-0.48236932153125167	-0.25483416544388077
-0.48230828637500167	-0.26689676955418046
-0.48224725121875167	-0.278892754667915
-0.48218621606250167	-0.29077765098063346
-0.48212518090625167	-0.30248716849508894
-0.48206414575000167	-0.3140356134484821
-0.48200311059375167	-0.32548191098131407
-0.48194207543750167	-0.3368219604202119
-0.48188104028125167	-0.3479878550814789
-0.48182000512500167	-0.35895343844143296
-0.48175896996875167	-0.36976867888114834
-0.48169793481250167	-0.3804666899881753
-0.48163689965625167	-0.39100034669886724
-0.48157586450000167	-0.4013139012339295
-0.48151482934375167	-0.4114280933963278
-0.48145379418750167	-0.4213965106931445
-0.48139275903125167	-0.4312079526930931
-0.48133172387500167	-0.44079849634535745
-0.48127068871875167	-0.4501515231721608
-0.48120965356250167	-0.4593173339150955
-0.48114861840625167	-0.468320723190232
-0.48108758325000167	-0.47711281721523247
-0.48102654809375167	-0.48564708228585657
-0.48096551293750167	-0.4939503898567114
-0.48090447778125167	-0.5020703722468481
-0.48084344262500167	-0.5099890369487683
-0.48078240746875167	-0.5176476139314389
-0.48072137231250167	-0.525039334341355
-0.48066033715625167	-0.5322138960879831
-0.48059930200000167	-0.5391876485115705
-0.48053826684375167	-0.5459112450854706
-0.48047723168750167	-0.5523479006017586
-0.48041619653125167	-0.5585295878649381
-0.48035516137500167	-0.5644973906125488
-0.48029412621875167	-0.5702276446136456
-0.48023309106250167	-0.5756679538673373
-0.48017205590625167	-0.5808211055595603
-0.48011102075000167	-0.5857353570943741
-0.48004998559375167	-0.5904186418836567
-0.47998895043750167	-0.5948218166375414
-0.47992791528125167	-0.5989183622637326
-0.47986688012500167	-0.6027453760744664
-0.47980584496875167	-0.6063371421524033
-0.47974480981250167	-0.6096642287165319
-0.47968377465625167	-0.6126807860119656
-0.47962273950000167	-0.6153994171773504
-0.47956170434375167	-0.6178671342518145
-0.47950066918750167	-0.6200836017770911
-0.47943963403125167	-0.621999963630202
-0.47937859887500167	-0.6235997996541871
-0.47931756371875167	-0.6249251189708035
-0.47925652856250167	-0.626003764461969
-0.47919549340625167	-0.6268012382502568
-0.47913445825000167	-0.627278262490608
-0.47907342309375167	-0.6274565966840164
-0.47901238793750167	-0.6273817643046145
-0.47895135278125167	-0.6270456376564341
-0.47889031762500167	-0.6264000066070692
-0.47882928246875167	-0.6254385298542126
-0.47876824731250167	-0.6242081841907113
-0.47870721215625167	-0.6227302700999038
-0.47864617700000167	-0.6209647616050298
-0.47858514184375167	-0.6188790305620738
-0.47852410668750167	-0.616504824458806
-0.47846307153125167	-0.6138864093486733
-0.47840203637500167	-0.6110070929209845
-0.47834100121875167	-0.6078188515052132
-0.47827996606250167	-0.6043258229529798
-0.47821893090625167	-0.6005803970290894
-0.47815789575000167	-0.5965973381358913
-0.47809686059375167	-0.5923308464977066
-0.47803582543750167	-0.5877546007633704
-0.47797479028125167	-0.5829102256335982
-0.47791375512500167	-0.5778411635089064
-0.47785271996875167	-0.5725224352215508
-0.47779168481250167	-0.5669057003993068
-0.47773064965625167	-0.5610050975221602
-0.47766961450000167	-0.554878730180236
-0.47760857934375167	-0.5485352701716494
-0.47754754418750167	-0.5419228161184108
-0.47748650903125167	-0.5350207599827778
-0.47742547387500167	-0.5278808086897816
-0.47736443871875167	-0.5205460774492626
-0.47730340356250167	-0.5129828843750175
-0.47724236840625167	-0.5051416353956149
-0.47718133325000167	-0.49704666612093346
-0.47712029809375167	-0.4887629930350426
-0.47705926293750167	-0.48029307946628835
-0.47699822778125167	-0.47157726857164123
-0.47693719262500167	-0.4626000617804717
-0.47687615746875167	-0.45342456137469894
-0.47681512231250167	-0.4440944845846943
-0.47675408715625167	-0.4345663550399193
-0.47669305200000167	-0.4247879679823334
-0.47663201684375167	-0.4147942305271563
-0.47657098168750167	-0.40465806103349206
-0.47650994653125167	-0.39437531286640726
-0.47644891137500167	-0.38387730330824393
-0.47638787621875167	-0.37315359972823653
-0.47632684106250167	-0.3622797457722062
-0.47626580590625167	-0.3513000739128946
-0.47620477075000167	-0.34016006581446645
-0.47614373559375167	-0.3288041741658853
-0.47608270043750167	-0.31727854882704193
-0.47602166528125167	-0.30566492303629456
-0.47596063012500167	-0.2939520084603082
-0.47589959496875167	-0.2820605158609456
-0.47583855981250167	-0.26998472205295265
-0.47577752465625167	-0.2578139587331311
-0.47571648950000167	-0.24559352744006596
-0.47565545434375167	-0.2332559769441248
-0.47559441918750167	-0.220741410250235
-0.47553338403125167	-0.20810879029615822
-0.47547234887500167	-0.19544951994263862
-0.47541131371875167	-0.18274355237055426
-0.47535027856250167	-0.16989968929433122
-0.47528924340625167	-0.1569175346990866
-0.47522820825000167	-0.14390102735034324
-0.47516717309375167	-0.13089605145126007
-0.47510613793750167	-0.11782127797366235
-0.47504510278125167	-0.10461198680477986
-0.47498406762500167	-0.09134007500947759
-0.47492303246875167	-0.07810686746243989
-0.47486199731250167	-0.06488320179690908
-0.47480096215625167	-0.05156514770268033
-0.47473992700000167	-0.038157559461331494
-0.47467889184375167	-0.02477935025807578
-0.47461785668750167	-0.011476544918163589
-0.47455682153125167	0.0018466827937718708
-0.47449578637500167	0.015259721664475156
-0.47443475121875167	0.028677724363789982
-0.47437371606250167	0.041990326849743076
-0.47431268090625167	0.055236143739679035
-0.47425164575000167	0.06853081498471879
-0.47419061059375167	0.08186439931209154
-0.47412957543750167	0.09510538896458089
-0.47406854028125167	0.10820833827202887
-0.47400750512500167	0.12128085245046652
-0.47394646996875167	0.13439560746748253
-0.47388543481250167	0.14745831402872525
-0.47382439965625167	0.16035312121381848
-0.47376336450000167	0.17312573843623838
-0.47370232934375167	0.1858989057446473
-0.47364129418750167	0.19865842970822603
-0.47358025903125167	0.211265610267092
-0.47351922387500167	0.2236775567373754
-0.47345818871875167	0.23600957642256876
-0.47339715356250167	0.24833449921955253
-0.47333611840625167	0.26055175390851687
-0.47327508325000167	0.2725445215294634
-0.47321404809375167	0.2843644187927478
-0.47315301293750167	0.29613646088099993
-0.47309197778125167	0.3078422070882987
-0.47303094262500167	0.3193416508858797
-0.47296990746875167	0.3305969087645386
-0.47290887231250167	0.34172566661738085
-0.47284783715625167	0.35279645966556883
-0.47278680200000167	0.36370672679520216
-0.47272576684375167	0.3743453845550188
-0.47266473168750167	0.3847685426233053
-0.47260369653125167	0.3950969585338568
-0.47254266137500167	0.4053073884937061
-0.47248162621875167	0.41526461559774747
-0.47242059106250167	0.4249385480706445
-0.47235955590625167	0.43444465133957433
-0.47229852075000167	0.44384338638775095
-0.47223748559375167	0.45303401927009546
-0.47217645043750167	0.4619166156824781
-0.47211541528125167	0.47054988733723657
-0.47205438012500167	0.4790442846898642
-0.47199334496875167	0.48737189984448
-0.47193230981250167	0.4954087593791056
-0.47187127465625167	0.5031350996269428
-0.47181023950000167	0.5106595842094263
-0.47174920434375167	0.5180309487722803
-0.47168816918750167	0.5251528178083097
-0.47162713403125167	0.5319404724803694
-0.47156609887500167	0.5384551605357766
-0.47150506371875167	0.5447941703711555
-0.47144402856250167	0.5509239755216652
-0.47138299340625167	0.5567339037957625
-0.47132195825000167	0.5622162823789284
-0.47126092309375167	0.5674719347715432
-0.47119988793750167	0.5725362997953384
-0.47113885278125167	0.577318303659133
-0.47107781762500167	0.581750333969503
-0.47101678246875167	0.5858958818830602
-0.47095574731250167	0.5898375516740768
-0.47089471215625167	0.5935362920310807
-0.47083367700000167	0.5968960512900306
-0.47077264184375167	0.5999216811279116
-0.47071160668750167	0.6027056867154408
-0.47065057153125167	0.6052699352728825
-0.47058953637500167	0.6075287306682361
-0.47052850121875167	0.6094317654265448
-0.47046746606250167	0.6110452048900094
-0.47040643090625167	0.6124373951610246
-0.47034539575000167	0.613563574277384
-0.47028436059375167	0.61434161517612
