Time	Frequency
-0.5000408203749984	-0.3613229720317938
-0.4999797852187484	-0.3688807797532735
-0.4999187500624984	-0.376327754723492
-0.4998577149062484	-0.38366536934557477
-0.4997966797499984	-0.39086174638405363
-0.4997356445937484	-0.39791538751103567
-0.4996746094374984	-0.4048522573508982
-0.4996135742812484	-0.4116642262086059
-0.4995525391249984	-0.41832214308170396
-0.4994915039687484	-0.42483374476953134
-0.4994304688124984	-0.431221325157922
-0.4993694336562484	-0.43746887043337884
-0.4993083984999984	-0.44355265196601185
-0.4992473633437484	-0.44948773406800974
-0.4991863281874984	-0.4552901651441408
-0.4991252930312484	-0.46093784847946323
-0.4990642578749984	-0.4664144280868725
-0.4990032227187484	-0.4717402820492012
-0.4989421875624984	-0.4769239443767002
-0.4988811524062484	-0.4819399444272885
-0.4988201172499984	-0.4867804121147492
-0.4987590820937484	-0.4914679605069495
-0.4986980469374984	-0.4960027149812391
-0.4986370117812484	-0.5003587788230975
-0.4985759766249984	-0.5045371191840481
-0.4985149414687484	-0.5085599074782817
-0.4984539063124984	-0.5124191325227019
-0.4983928711562484	-0.516091095852143
-0.4983318359999984	-0.5195849197907767
-0.4982708008437484	-0.5229198357705342
-0.4982097656874984	-0.5260807772041941
-0.4981487305312484	-0.5290485478161188
-0.4980876953749984	-0.5318390078269277
-0.4980266602187484	-0.5344662875257848
-0.4979656250624984	-0.5369098747996088
-0.4979045899062484	-0.5391570830159944
-0.4978435547499984	-0.5412288134775043
-0.4977825195937484	-0.5431324553910171
-0.4977214844374984	-0.5448439871988321
-0.4976604492812484	-0.5463585496421148
-0.4975994141249984	-0.5476998882015657
-0.4975383789687484	-0.5488676026597625
-0.4974773438124984	-0.5498365538949944
-0.4974163086562484	-0.5506103645702256
-0.4973552734999984	-0.5512130577527266
-0.4972942383437484	-0.5516363110632898
-0.4972332031874984	-0.5518566507276685
-0.4971721680312484	-0.5518859166901279
-0.4971111328749984	-0.5517455022927414
-0.4970500977187484	-0.5514196796917392
-0.4969890625624984	-0.5508894627296588
-0.4969280274062484	-0.5501741191342711
-0.4968669922499984	-0.5492899615730289
-0.4968059570937484	-0.5482151356818206
-0.4967449219374984	-0.5469371751593057
-0.4966838867812484	-0.5454809381054284
-0.4966228516249984	-0.5438558386093348
-0.4965618164687484	-0.5420360626860086
-0.4965007813124984	-0.5400173209686606
-0.4964397461562484	-0.5378277373951676
-0.4963787109999984	-0.5354684357548385
-0.4963176758437484	-0.5329121524098067
-0.4962566406874984	-0.5301639277998748
-0.4961956055312484	-0.5272525265242212
-0.4961345703749984	-0.5241698557628737
-0.4960735352187484	-0.5208897457317171
-0.4960125000624984	-0.5174269588443506
-0.4959514649062484	-0.51380831974193
-0.4958904297499984	-0.5100168924351823
-0.4958293945937484	-0.5060304888146053
-0.4957683594374984	-0.501872655860405
-0.4957073242812484	-0.4975651308818299
-0.4956462891249984	-0.49308323565349943
-0.4955852539687484	-0.4884117462489541
-0.4955242188124984	-0.4835816785942961
-0.4954631836562484	-0.4786070493314484
-0.4954021484999984	-0.47345717505322255
-0.4953411133437484	-0.4681260764065272
-0.4952800781874984	-0.4626500730727274
-0.4952190430312484	-0.4570335546532119
-0.4951580078749984	-0.45124232869221975
-0.4950969727187484	-0.44528119416315876
-0.4950359375624984	-0.43918887559967906
-0.4949749024062484	-0.4329587722687212
-0.4949138672499984	-0.42655634926026836
-0.4948528320937484	-0.4199981643079296
-0.4947917969374984	-0.4133218975378052
-0.4947307617812484	-0.40650958246317703
-0.4946697266249984	-0.39953012913727953
-0.4946086914687484	-0.3924118730297833
-0.4945476563124984	-0.38518760022671217
-0.4944866211562484	-0.3778280885115519
-0.4944255859999984	-0.3703091276693269
-0.4943645508437484	-0.36266999497833674
-0.4943035156874984	-0.3549352986766001
-0.4942424805312484	-0.3470662453512071
-0.4941814453749984	-0.3390488660495988
-0.4941204102187484	-0.3309314898911127
-0.4940593750624984	-0.3227275393489932
-0.4939983399062484	-0.31439061698928344
-0.4939373047499984	-0.30591916700025634
-0.4938762695937484	-0.29736762047174087
-0.4938152344374984	-0.28873622128804066
-0.4937541992812484	-0.27997485907560243
-0.4936931641249984	-0.2710967226754209
-0.4936321289687484	-0.262158449635237
-0.4935710938124984	-0.2531450185701992
-0.4935100586562484	-0.24400622636994054
-0.4934490234999984	-0.23477108982991748
-0.4933879883437484	-0.2254944664246058
-0.4933269531874984	-0.21614561158526205
-0.4932659180312484	-0.20667847836115796
-0.4932048828749984	-0.19713793149462003
-0.4931438477187484	-0.1875728152063876
-0.4930828125624984	-0.17793721946789595
-0.4930217774062484	-0.1681934396448217
-0.4929607422499984	-0.1584010987625322
-0.4928997070937484	-0.14859897374336667
-0.4928386719374984	-0.13872749728609435
-0.4927776367812484	-0.12876109043830256
-0.4927166016249984	-0.11877188230317345
-0.4926555664687484	-0.10878457230172595
-0.4925945313124984	-0.0987285858827742
-0.4925334961562484	-0.08859435390834415
-0.4924724609999984	-0.07846363523141872
-0.4924114258437484	-0.06834405592320095
-0.4923503906874984	-0.05815768111689698
-0.4922893555312484	-0.04791344017118533
-0.4922283203749984	-0.03769820484413625
-0.4921672852187484	-0.02749963072516365
-0.4921062500624984	-0.017236588958007334
-0.4920452149062484	-0.006938814729459303
-0.4919841797499984	0.003305447185551974
-0.4919231445937484	0.013529128147015438
-0.4918621094374984	0.023812150206649948
-0.4918010742812484	0.03410440624778466
-0.4917400391249984	0.04432170821489363
-0.4916790039687484	0.05451726582930281
-0.4916179688124984	0.0647640494015104
-0.4915569336562484	0.07499188163011944
-0.4914958984999984	0.08512641341923312
-0.4914348633437484	0.09524056364308371
-0.4913738281874984	0.10539504024828272
-0.4913127930312484	0.1155010149592718
-0.4912517578749984	0.12549857303485068
-0.4911907227187484	0.13547740728487742
-0.4911296875624984	0.14548164514055628
-0.4910686524062484	0.15540807514260893
-0.4910076172499984	0.16521561366618603
-0.4909465820937484	0.1750062712495398
-0.4908855469374984	0.18480378618735066
-0.4908245117812484	0.1944951031320185
-0.4907634766249984	0.2040609240800493
-0.4907024414687484	0.21361044969993112
-0.4906414063124984	0.2231448595690883
-0.4905803711562484	0.23254722890634957
-0.4905193359999984	0.24182154916290113
-0.4904583008437484	0.2510776682561715
-0.4903972656874984	0.26029333723013953
-0.4903362305312484	0.26935457589185213
-0.4902751953749984	0.2782890394291449
-0.4902141602187484	0.2872007830500304
-0.4901531250624984	0.2960448002076389
-0.4900920899062484	0.30471592716405
-0.4900310547499984	0.3132633487416935
-0.4899700195937484	0.3217797667043738
-0.4899089844374984	0.33020076419341304
-0.4898479492812484	0.3384356277886667
-0.4897869141249984	0.34655121598293376
-0.4897258789687484	0.35462343775086824
-0.4896648438124984	0.36257282832801246
-0.4896038086562484	0.3703278618378892
-0.4895427734999984	0.3779679958140401
-0.4894817383437484	0.3855487857989062
-0.4894207031874984	0.39298143658016754
-0.4893596680312484	0.400216218463552
-0.4892986328749984	0.40733942946537655
-0.4892375977187484	0.4143844198647366
-0.4891765625624984	0.42125871403118514
-0.4891155274062484	0.42793535303630814
-0.4890544922499984	0.4345016080711191
-0.4889934570937484	0.44096863017630894
-0.4889324219374984	0.44724647660783495
-0.4888713867812484	0.45333037524523434
-0.4888103516249984	0.45930281783851284
-0.4887493164687484	0.4651540482290117
-0.4886882813124984	0.4708015589676044
-0.4886272461562484	0.47626034122416006
-0.4885662109999984	0.48160356471932964
-0.4885051758437484	0.48680405451368763
-0.4884441406874984	0.4917913624140155
-0.4883831055312484	0.496596411186345
-0.4883220703749984	0.501278849040002
-0.4882610352187484	0.505798009719197
-0.4882000000624984	0.5100988097145163
-0.4881389649062484	0.5142238594056857
-0.4880779297499984	0.5182169025742068
-0.4880168945937484	0.5220285432935982
-0.4879558594374984	0.5256207484163943
-0.4878948242812484	0.5290427941676066
-0.4878337891249984	0.5323215399288656
-0.4877727539687484	0.5354039519306745
-0.4877117188124984	0.5382693610892106
-0.4876506836562484	0.5409686931673617
-0.4875896484999984	0.5435122379858633
-0.4875286133437484	0.5458480399906367
-0.4874675781874984	0.5479718408866033
-0.4874065430312484	0.5499320141202998
-0.4873455078749984	0.5517239586639334
-0.4872844727187484	0.5533007022505941
-0.4872234375624984	0.5546722138156818
-0.4871624024062484	0.5558805839059687
-0.4871013672499984	0.5569087940271126
-0.4870403320937484	0.5577181835032913
-0.4869792969374984	0.5583301122634857
-0.4869182617812484	0.5587776816476406
-0.4868572266249984	0.5590348147820338
-0.4867961914687484	0.5590733638083414
-0.4867351563124984	0.5589223885059968
-0.4866741211562484	0.5586042255140861
-0.4866130859999984	0.5580874717025643
-0.4865520508437484	0.5573557494244779
-0.4864910156874984	0.5564421578160663
-0.4864299805312484	0.5553576583769273
-0.4863689453749984	0.5540691765125955
-0.4863079102187484	0.5525721186559307
-0.4862468750624984	0.5508999499364255
-0.4861858399062484	0.5490526173678548
-0.4861248047499984	0.5469989025663639
-0.4860637695937484	0.5447453143296275
-0.4860027344374984	0.5423224666003401
-0.4859416992812484	0.5397205535921532
-0.4858806641249984	0.5369132243829705
-0.4858196289687484	0.5339161838320596
-0.4857585938124984	0.5307542683899595
-0.4856975586562484	0.5274100418311177
-0.4856365234999984	0.5238644982621697
-0.4855754883437484	0.5201403332200208
-0.4855144531874984	0.5162549490144296
-0.4854534180312484	0.5121860115515187
-0.4853923828749984	0.5079229830550892
-0.4853313477187484	0.5034921334899632
-0.4852703125624984	0.498902164875968
-0.4852092774062484	0.49412912398050884
-0.4851482422499984	0.4891722003632642
-0.4850872070937484	0.4840587304209367
-0.4850261719374984	0.4787883576537502
-0.4849651367812484	0.4733378069317702
-0.4849041016249984	0.46771514398882136
-0.4848430664687484	0.46194581295685333
-0.4847820313124984	0.45602164745957163
-0.4847209961562484	0.44992327345056005
-0.4846599609999984	0.4436663789340207
-0.4845989258437484	0.43727173796422947
-0.4845378906874984	0.43072483105663717
-0.4844768555312484	0.4240124909922404
-0.4844158203749984	0.4171564087546022
-0.4843547852187484	0.4101708074106944
-0.4842937500624984	0.403036501514588
-0.4842327149062484	0.3957476403690222
-0.4841716797499984	0.38832964331063535
-0.4841106445937484	0.38078952283146267
-0.4840496094374984	0.3731063132606862
-0.4839885742812484	0.3652821631164461
-0.4839275391249984	0.3573432155355372
-0.4838665039687484	0.3492884793181148
-0.4838054688124984	0.34109784056673076
-0.4837444336562484	0.33278202905851645
-0.4836833984999984	0.3243657331840348
-0.4836223633437484	0.3158399262732237
-0.4835613281874984	0.3071873205088469
-0.4835002930312484	0.2984264964463534
-0.4834392578749984	0.2895784685169021
-0.4833782227187484	0.2806273633941636
-0.4833171875624984	0.27156089243401016
-0.4832561524062484	0.26240366085247635
-0.4831951172499984	0.25317084575222415
-0.4831340820937484	0.24384219782473468
-0.4830730469374984	0.23441298960820936
-0.4830120117812484	0.22491148586412732
-0.4829509766249984	0.21534456268052626
-0.4828899414687484	0.2056894192595065
-0.4828289063124984	0.19595008373374326
-0.4827678711562484	0.1861563569417979
-0.4827068359999984	0.1763066205425096
-0.4826458008437484	0.1663782023854623
-0.4825847656874984	0.1563837339516839
-0.4825237305312484	0.14635154893358188
-0.4824626953749984	0.1362717741978533
-0.4824016602187484	0.12612509574452477
-0.4823406250624984	0.11593255602079766
-0.4822795899062484	0.10571784063936011
-0.4822185547499984	0.09546287963240398
-0.4821575195937484	0.08515392292186884
-0.4820964844374984	0.07481969660520794
-0.4820354492812484	0.06447785507314063
-0.4819744141249984	0.054104063553319384
-0.4819133789687484	0.04369185203281046
-0.4818523438124984	0.03327486756050911
-0.4817913086562484	0.02286201049127441
-0.4817302734999984	0.012425168791461582
-0.4816692383437484	0.0019677879313304615
-0.4816082031874984	-0.008473709529040283
-0.4815471680312484	-0.018900680761714233
-0.4814861328749984	-0.029342398529188896
-0.4814250977187484	-0.03978495814690519
-0.4813640625624984	-0.050192612891355404
-0.4813030274062484	-0.06057740147846019
-0.4812419922499984	-0.07096631548351333
-0.4811809570937484	-0.08133472699465491
-0.4811199219374984	-0.09165063541360491
-0.4810588867812484	-0.1019365903317788
-0.4809978516249984	-0.1122143844809513
-0.4809368164687484	-0.12244960249202959
-0.4808757813124984	-0.1326171980479343
-0.4808147461562484	-0.14274857313873304
-0.4807537109999984	-0.15285683868414104
-0.4806926758437484	-0.1628998561989597
-0.4806316406874984	-0.172863007757465
-0.4805706055312484	-0.18278456270027377
-0.4805095703749984	-0.19266612819497725
-0.4804485352187484	-0.20246012967940696
-0.4803875000624984	-0.21216452740835243
-0.4803264649062484	-0.22182146000516575
-0.4802654297499984	-0.23141926594149442
-0.4802043945937484	-0.24090849680004023
-0.4801433594374984	-0.25030122607971594
-0.4800823242812484	-0.2596398619536928
-0.4800212891249984	-0.2688985604489215
-0.4799602539687484	-0.2780298256122708
-0.4798992188124984	-0.2870602132386366
-0.4798381836562484	-0.29602833524917066
-0.4797771484999984	-0.30489413986523123
-0.4797161133437484	-0.3136160722066858
-0.4796550781874984	-0.32223470307884355
-0.4795940430312484	-0.33078100089968987
-0.4795330078749984	-0.3392020719197992
-0.4794719727187484	-0.34746654025551743
-0.4794109375624984	-0.3556271791610576
-0.4793499024062484	-0.36370304741487297
-0.4792888672499984	-0.3716304356775471
-0.4792278320937484	-0.3793917392007047
-0.4791667969374984	-0.38704934515518186
-0.4791057617812484	-0.394607453816079
-0.4790447266249984	-0.40199483356963067
-0.4789836914687484	-0.4092105782251555
-0.4789226563124984	-0.4163233014401341
-0.4788616211562484	-0.4233196678877343
-0.4788005859999984	-0.430124412462005
-0.4787395508437484	-0.43675528626367544
-0.4786785156874984	-0.44328306904284853
-0.4786174805312484	-0.44967570744647767
-0.4785564453749984	-0.4558587471709423
-0.4784954102187484	-0.46186951056541525
-0.4784343750624984	-0.46777587886669836
-0.4783733399062484	-0.47352631362690517
-0.4783123047499984	-0.47905200394824754
-0.4782512695937484	-0.4844101594058165
-0.4781902344374984	-0.48966112945248913
-0.4781291992812484	-0.49473438468938474
-0.4780681641249984	-0.499571505846984
-0.4780071289687484	-0.5042483264030012
-0.4779460938124984	-0.5088129955912662
-0.4778850586562484	-0.5131781825794534
-0.4778240234999984	-0.5173003808899841
-0.4777629883437484	-0.5212710115249047
-0.4777019531874984	-0.5251215196328387
-0.4776409180312484	-0.5287512230804666
-0.4775798828749984	-0.5321359047451977
-0.4775188477187484	-0.5353789197197778
-0.4774578125624984	-0.5384911612573798
-0.4773967774062484	-0.5413628545085077
-0.4773357422499984	-0.543992346219657
-0.4772747070937484	-0.546489942093835
-0.4772136719374984	-0.548843392178401
-0.4771526367812484	-0.5509393577177061
-0.4770916016249984	-0.5528004671432953
-0.4770305664687484	-0.5545381143112962
-0.4769695313124984	-0.5561161039827179
-0.4769084961562484	-0.557423641380367
-0.4768474609999984	-0.5585076653211695
-0.4767864258437484	-0.5594744162013487
-0.4767253906874984	-0.5602645430945555
-0.4766643555312484	-0.5607761149469367
-0.4766033203749984	-0.5610786631657312
-0.4765422852187484	-0.5612670120026967
-0.4764812500624984	-0.5612613358098197
-0.4764202149062484	-0.560974610202741
-0.4763591797499984	-0.5604954618819319
-0.4762981445937484	-0.5599016952737009
-0.4762371094374984	-0.5590972208562714
-0.4761760742812484	-0.5580148921205988
-0.4761150391249984	-0.5567575021004467
-0.4760540039687484	-0.5553816259433652
-0.4759929688124984	-0.5537805330359199
-0.4759319336562484	-0.5519103206586223
-0.4758708984999984	-0.5498817425499185
-0.4758098633437484	-0.5477276723510197
-0.4757488281874984	-0.5453373804482385
-0.4756877930312484	-0.5426917655080346
-0.4756267578749984	-0.5399026877808456
-0.4755657227187484	-0.5369787288302653
-0.4755046875624984	-0.5338119487919813
-0.4754436524062484	-0.5304075897512767
-0.4753826172499984	-0.5268720350055629
-0.4753215820937484	-0.5231909630223294
-0.4752605469374984	-0.5192654306066223
-0.4751995117812484	-0.5151228314970192
-0.4751384766249984	-0.5108584356840521
-0.4750774414687484	-0.5064380547842937
-0.4750164063124984	-0.501776763759353
-0.4749553711562484	-0.4969201276007097
-0.4748943359999984	-0.49194768634139957
-0.4748333008437484	-0.4868099972937339
-0.4747722656874984	-0.4814403059914423
-0.4747112305312484	-0.4758975391357978
-0.4746501953749984	-0.4702422267879639
-0.4745891602187484	-0.4644145876603591
-0.4745281250624984	-0.458368089806897
-0.4744670899062484	-0.4521696353696456
-0.4744060547499984	-0.4458595732088135
-0.4743450195937484	-0.4393735359632934
-0.4742839844374984	-0.4326857830385092
-0.4742229492812484	-0.4258655554169768
-0.4741619141249984	-0.4189332788503535
-0.4741008789687484	-0.41182533025366996
-0.4740398438124984	-0.40453556336239277
-0.4739788086562484	-0.3971303281238515
-0.4739177734999984	-0.38961182765304064
-0.4738567383437484	-0.3819220988980185
-0.4737957031874984	-0.37407234014457935
-0.4737346680312484	-0.3661214708387695
-0.4736736328749984	-0.3580562729921903
-0.4736125977187484	-0.34982853741882436
-0.4735515625624984	-0.3414636726341645
-0.4734905274062484	-0.33300992809840807
-0.4734294922499984	-0.32444229724328305
-0.4733684570937484	-0.3157245366918727
-0.4733074219374984	-0.30689181492965345
-0.4732463867812484	-0.29797973621201634
-0.4731853516249984	-0.2889559427969321
-0.4731243164687484	-0.27979796170753607
-0.4730632813124984	-0.2705468377843805
-0.4730022461562484	-0.2612245741072161
-0.4729412109999984	-0.25179532348989275
-0.4728801758437484	-0.24225032332432686
-0.4728191406874984	-0.23263209158620995
-0.4727581055312484	-0.22294936960960904
-0.4726970703749984	-0.21316713457837488
-0.4726360352187484	-0.2032897928295375
-0.4725750000624984	-0.19335771788467768
-0.4725139649062484	-0.18336772234436674
-0.4724529297499984	-0.17328873858390487
-0.4723918945937484	-0.16313589896294714
-0.4723308594374984	-0.15294401332796903
-0.4722698242812484	-0.14270051546323997
-0.4722087891249984	-0.13238163011951234
-0.4721477539687484	-0.12201113337262448
-0.4720867188124984	-0.11161575524275032
-0.4720256836562484	-0.10117580870175333
-0.4719646484999984	-0.090676597352089
-0.4719036133437484	-0.08014748962041823
-0.4718425781874984	-0.06960550553235949
-0.4717815430312484	-0.05902701383108973
-0.4717205078749984	-0.04840747905066954
-0.4716594727187484	-0.03777890934447661
-0.4715984375624984	-0.027148430574934244
-0.4715374024062484	-0.016491461892155487
-0.4714763672499984	-0.005812893021792467
-0.4714153320937484	0.004856286710728184
-0.4713542969374984	0.015517905545422392
-0.4712932617812484	0.02619343821310458
-0.4712322266249984	0.0368689670363652
-0.4711711914687484	0.04751770411763836
-0.4711101563124984	0.058150120533248355
-0.4710491211562484	0.06878302694321532
-0.4709880859999984	0.07939535779365726
-0.4709270508437484	0.0899660593246164
-0.4708660156874984	0.10051106170432317
-0.4708049805312484	0.11103999345440449
-0.4707439453749984	0.12152760392002454
-0.4706829102187484	0.13196098685696322
-0.4706218750624984	0.14235917526146014
-0.4705608399062484	0.15272334997297024
-0.4704998047499984	0.16302655377550287
-0.4704387695937484	0.17326470308141217
-0.4703777344374984	0.18345748428996095
-0.4703166992812484	0.19359745559089117
-0.4702556641249984	0.20365823652375004
-0.4701946289687484	0.2136440294591498
-0.4701335938124984	0.22357286962489828
-0.4700725586562484	0.23342977969145334
-0.4700115234999984	0.2431915761788007
-0.4699504883437484	0.25286963831527487
-0.4698894531874984	0.2624776752638072
-0.4698284180312484	0.2719943434747679
-0.4697673828749984	0.2814020477424267
-0.4697063477187484	0.29071793039611415
-0.4696453125624984	0.29994948021152124
