Time	Frequency
-0.5000457750312535	-0.05493065295082475
-0.49998473987500347	-0.04531401045665468
-0.49992370471875347	-0.03575267018302504
-0.49986266956250347	-0.02617814687429879
-0.49980163440625347	-0.016525716799198325
-0.49974059925000347	-0.006845119956371269
-0.49967956409375347	0.0027777225299478307
-0.49961852893750347	0.012356527044080749
-0.49955749378125347	0.021975037106810594
-0.49949645862500347	0.03164373761350866
-0.49943542346875347	0.04127939855537124
-0.49937438831250347	0.05083817213158658
-0.49931335315625347	0.0603812471469389
-0.49925231800000347	0.06996720857278284
-0.49919128284375347	0.07955112633161063
-0.49913024768750347	0.08905540020013035
-0.49906921253125347	0.09849253417651138
-0.49900817737500347	0.10793760009542834
-0.49894714221875347	0.11739867047544121
-0.49888610706250347	0.12679981603674717
-0.49882507190625347	0.13610231417762686
-0.49876403675000347	0.14536244907922413
-0.49870300159375347	0.15463246832938415
-0.49864196643750347	0.16387020197934218
-0.49858093128125347	0.17300519541130566
-0.49851989612500347	0.18204970313025887
-0.49845886096875347	0.19107175894319997
-0.49839782581250347	0.20007756640272825
-0.49833679065625347	0.20899792297847883
-0.49827575550000347	0.2177986657279872
-0.49821472034375347	0.22653125722973663
-0.49815368518750347	0.2352416428097194
-0.49809265003125347	0.24389015534873623
-0.49803161487500347	0.25241384058916916
-0.49797057971875347	0.260825822736995
-0.49790954456250347	0.2691876164678188
-0.49784850940625347	0.27750232594379587
-0.49778747425000347	0.2857061583712869
-0.49772643909375347	0.2937703777497565
-0.49766540393750347	0.3017433974938144
-0.49760436878125347	0.3096650534028886
-0.49754333362500347	0.3174969611911004
-0.49748229846875347	0.3251829866495508
-0.49742126331250347	0.33273790061172753
-0.49736022815625347	0.3402177907399633
-0.49729919300000347	0.34762261929747446
-0.49723815784375347	0.3548929515123616
-0.49717712268750347	0.36200499079886495
-0.49711608753125347	0.369005288266062
-0.49705505237500347	0.375928889395574
-0.49699401721875347	0.3827379735905222
-0.49693298206250347	0.38938177368032556
-0.49687194690625347	0.3958768353769603
-0.49681091175000347	0.4022749602043555
-0.49674987659375347	0.40857360252797914
-0.49668884143750347	0.4147173416355642
-0.49662780628125347	0.4206867153913382
-0.49656677112500347	0.42652659833502266
-0.49650573596875347	0.43226797808778067
-0.49644470081250347	0.43787362844913263
-0.49638366565625347	0.44329708572874027
-0.49632263050000347	0.4485564876365186
-0.49626159534375347	0.4537012004360301
-0.49620056018750347	0.45872702654226166
-0.49613952503125347	0.4635805751149607
-0.49607848987500347	0.46824514605439654
-0.49601745471875347	0.47276566853378293
-0.49595641956250347	0.47717153114629174
-0.49589538440625347	0.48142509076352347
-0.49583434925000347	0.48548145506169815
-0.49577331409375347	0.4893608588019547
-0.49571227893750347	0.49311322039264743
-0.49565124378125347	0.49673306278683477
-0.49559020862500347	0.5001660250988879
-0.49552917346875347	0.5033968097523027
-0.49546813831250347	0.5064731768452593
-0.49540710315625347	0.5094254854749855
-0.49534606800000347	0.5122140121076368
-0.49528503284375347	0.5147920381957062
-0.49522399768750347	0.51718205326622
-0.49516296253125347	0.5194385629094662
-0.49510192737500347	0.5215565835516003
-0.49504089221875347	0.5234768435725419
-0.49497985706250347	0.5251818814622529
-0.49491882190625347	0.5267254568971313
-0.49485778675000347	0.5281440198835023
-0.49479675159375347	0.5293942152923328
-0.49473571643750347	0.5304217339512532
-0.49467468128125347	0.5312510802716982
-0.49461364612500347	0.5319468913054115
-0.49455261096875347	0.5325066083145515
-0.49449157581250347	0.5328615072279927
-0.49443054065625347	0.5329888276715381
-0.49436950550000347	0.53295172098109
-0.49430847034375347	0.5327968745816462
-0.49424743518750347	0.5324752644314719
-0.49418640003125347	0.5319201060044031
-0.49412536487500347	0.5311583554486919
-0.49406432971875347	0.5302700117089126
-0.49400329456250347	0.529256427916491
-0.49394225940625347	0.5280346752910272
-0.49388122425000347	0.5265734379504944
-0.49382018909375347	0.5249487204715071
-0.49375915393750347	0.5232219190514155
-0.49369811878125347	0.521336759343955
-0.49363708362500347	0.5192091603537409
-0.49357604846875347	0.51686811074848
-0.49351501331250347	0.514413238344107
-0.49345397815625347	0.511851903868819
-0.49339294300000347	0.5090839990372302
-0.49333190784375347	0.5060665233600744
-0.49327087268750347	0.502889643164968
-0.49320983753125347	0.49963279264791916
-0.49314880237500347	0.49623270955330384
-0.49308776721875347	0.4925852036036335
-0.49302673206250347	0.4887197032508936
-0.49296569690625347	0.48475715388809243
-0.49290466175000347	0.4807132949011044
-0.49284362659375347	0.47647051157443315
-0.49278259143750347	0.4719716461053762
-0.49272155628125347	0.4673198595939746
-0.49266052112500347	0.46261431234571027
-0.49259948596875347	0.4577869819323891
-0.49253845081250347	0.4527131298885978
-0.49247741565625347	0.447420022208375
-0.49241638050000347	0.4420488637449454
-0.49235534534375347	0.4366258721556425
-0.49229431018750347	0.4310181968566332
-0.49223327503125347	0.4251532336181674
-0.49217223987500347	0.4191437426679524
-0.49211120471875347	0.4131085399478491
-0.49205016956250347	0.4069788800728079
-0.49198913440625347	0.4006113030186884
-0.49192809925000347	0.3940268705776788
-0.49186706409375347	0.38738301479997106
-0.49180602893750347	0.3807190341093247
-0.49174499378125347	0.3738925049867827
-0.49168395862500347	0.3668155198848871
-0.49162292346875347	0.35960446808994834
-0.49156188831250347	0.3523939577268189
-0.49150085315625347	0.34511838321714183
-0.49143981800000347	0.33762211760012983
-0.49137878284375347	0.32991958199747434
-0.49131774768750347	0.32217690546928
-0.49125671253125347	0.31444326983817517
-0.49119567737500347	0.30657336892379267
-0.49113464221875347	0.2984696744808666
-0.49107360706250347	0.29024698167917173
-0.49101257190625347	0.2820482866271588
-0.49095153675000347	0.2738142162264009
-0.49089050159375347	0.2653852815226787
-0.49082946643750347	0.25676860003263885
-0.49076843128125347	0.2481302533593326
-0.49070739612500347	0.23952654546198335
-0.49064636096875347	0.23081651283344917
-0.49058532581250347	0.22189872448807307
-0.49052429065625347	0.21288218227661435
-0.49046325550000347	0.20391107558837582
-0.49040222034375347	0.19493288048760674
-0.49034118518750347	0.18579073756932518
-0.49028015003125347	0.17648634444845507
-0.49021911487500347	0.16718065605510052
-0.49015807971875347	0.15793332103760926
-0.49009704456250347	0.14861079853939999
-0.49003600940625347	0.13911245326478286
-0.48997497425000347	0.129540233921154
-0.48991393909375347	0.12003408235387877
-0.48985290393750347	0.1105472215451098
-0.48979186878125347	0.10093058026175969
-0.48973083362500347	0.09118351299269575
-0.48966979846875347	0.08145763072916214
-0.48960876331250347	0.07181136208401297
-0.48954772815625347	0.06212099161688736
-0.48948669300000347	0.052291474584317
-0.48942565784375347	0.042417007460734193
-0.48936462268750347	0.03262890863590575
-0.48930358753125347	0.0228848965146845
-0.48924255237500347	0.013046065056528434
-0.48918151721875347	0.0031114138508333907
-0.48912048206250347	-0.006776796697678344
-0.48905944690625347	-0.01656288313218378
-0.48899841175000347	-0.026362698260796933
-0.48893737659375347	-0.03626612788992044
-0.48887634143750347	-0.046184867252189156
-0.48881530628125347	-0.05599439911408402
-0.48875427112500347	-0.0657332292495903
-0.48869323596875347	-0.075532216126803
-0.48863220081250347	-0.08539351808629551
-0.48857116565625347	-0.09518320810755158
-0.48851013050000347	-0.10484714012219577
-0.48844909534375347	-0.11449364465177019
-0.48838806018750347	-0.12420894173572036
-0.48832702503125347	-0.1339110177022954
-0.48826598987500347	-0.143480756366901
-0.48820495471875347	-0.15295189825731031
-0.48814391956250347	-0.16244855190798627
-0.48808288440625347	-0.17197607067075157
-0.48802184925000347	-0.1814088493435165
-0.48796081409375347	-0.19069222828961083
-0.48789977893750347	-0.19992575067752452
-0.48783874378125347	-0.20919331434062013
-0.48777770862500347	-0.21842122405764106
-0.48771667346875347	-0.22749566991820322
-0.48765563831250347	-0.23644430179035672
-0.48759460315625347	-0.24538446049652077
-0.48753356800000347	-0.2543254652401252
-0.48747253284375347	-0.26314991698061274
-0.48741149768750347	-0.27180220712848857
-0.48735046253125347	-0.2803733328181073
-0.48728942737500347	-0.2889455574764584
-0.48722839221875347	-0.29745415935701547
-0.48716735706250347	-0.30579056002114846
-0.48710632190625347	-0.3139750505367871
-0.48704528675000347	-0.3221173196661607
-0.48698425159375347	-0.3302320035256335
-0.48692321643750347	-0.33821182456919857
-0.48686218128125347	-0.3459999313665342
-0.48680114612500347	-0.3536772740879205
-0.48674011096875347	-0.36132414141680985
-0.48667907581250347	-0.36888536113586173
-0.48661804065625347	-0.37625826557497083
-0.48655700550000347	-0.3834563558948764
-0.48649597034375347	-0.3905812769185695
-0.48643493518750347	-0.39765206471159453
-0.48637390003125347	-0.40457193218475
-0.48631286487500347	-0.4112840345808028
-0.48625182971875347	-0.4178591800152701
-0.48619079456250347	-0.42437432320015467
-0.48612975940625347	-0.43078379045248594
-0.48606872425000347	-0.43699260603376666
-0.48600768909375347	-0.443008498811456
-0.48594665393750347	-0.4489237708399835
-0.48588561878125347	-0.4547598926490261
-0.48582458362500347	-0.4604306987615295
-0.48576354846875347	-0.46588184241956276
-0.48570251331250347	-0.47117562166957855
-0.48564147815625347	-0.47638387866141557
-0.48558044300000347	-0.4814676927028502
-0.48551940784375347	-0.4863405741615102
-0.48545837268750347	-0.4910078467680662
-0.48539733753125347	-0.49555295556370377
-0.48533630237500347	-0.49999669763926863
-0.48527526721875347	-0.5042621578307281
-0.48521423206250347	-0.508300278533819
-0.48515319690625347	-0.5121671385806986
-0.48509216175000347	-0.5159275089366203
-0.48503112659375347	-0.5195464233756458
-0.48497009143750347	-0.5229465637485162
-0.48490905628125347	-0.526133778852767
-0.48484802112500347	-0.5291836431567671
-0.48478698596875347	-0.5321142457900986
-0.48472595081250347	-0.5348561443125681
-0.48466491565625347	-0.5373664125527009
-0.48460388050000347	-0.5396967356597481
-0.48454284534375347	-0.5419050979827936
-0.48448181018750347	-0.5439592675405667
-0.48442077503125347	-0.5457904494513546
-0.48435973987500347	-0.547405753985314
-0.48429870471875347	-0.5488736466248434
-0.48423766956250347	-0.5502091234158198
-0.48417663440625347	-0.5513493749497859
-0.48411559925000347	-0.552257915560446
-0.48405456409375347	-0.5529833001851362
-0.48399352893750347	-0.5535768274257227
-0.48393249378125347	-0.5540075107778407
-0.48387145862500347	-0.5542143774156743
-0.48381042346875347	-0.5542071959580324
-0.48374938831250347	-0.5540486536030006
-0.48368835315625347	-0.5537498243949577
-0.48362731800000347	-0.5532530411444524
-0.48356628284375347	-0.5525284490161633
-0.48350524768750347	-0.5516227538007421
-0.48344421253125347	-0.5505809605986103
-0.48338317737500347	-0.549372541285571
-0.48332214221875347	-0.5479436110477802
-0.48326110706250347	-0.546306890562165
-0.48320007190625347	-0.5445202619642816
-0.48313903675000347	-0.5425911067064223
-0.48307800159375347	-0.5404658361422009
-0.48301696643750347	-0.5381204721843504
-0.48295593128125347	-0.5356007339025319
-0.48289489612500347	-0.532946434524824
-0.48283386096875347	-0.5301271670841468
-0.48277282581250347	-0.5270950691315368
-0.48271179065625347	-0.523865560673257
-0.48265075550000347	-0.5204924365495207
-0.48258972034375347	-0.5169800190932751
-0.48252868518750347	-0.5132783406831762
-0.48246765003125347	-0.5093682859906735
-0.48240661487500347	-0.5052949022385107
-0.48234557971875347	-0.5010943063458224
-0.48228454456250347	-0.4967360037922425
-0.48222350940625347	-0.49217594628413197
-0.48216247425000347	-0.4874319472030419
-0.48210143909375347	-0.4825564139943498
-0.48204040393750347	-0.4775517177963933
-0.48197936878125347	-0.472368760219455
-0.48191833362500347	-0.4669912178616417
-0.48185729846875347	-0.46146556113052334
-0.48179626331250347	-0.4558268487918843
-0.48173522815625347	-0.45004328338542354
-0.48167419300000347	-0.44407172560092373
-0.48161315784375347	-0.4379324603071168
-0.48155212268750347	-0.4316791613453081
-0.48149108753125347	-0.42531313814957633
-0.48143005237500347	-0.4187837106088097
-0.48136901721875347	-0.41207533665196255
-0.48130798206250347	-0.40523798565475744
-0.48124694690625347	-0.39830886458953835
-0.48118591175000347	-0.3912534143336877
-0.48112487659375347	-0.38402459498901953
-0.48106384143750347	-0.37664494713506885
-0.48100280628125347	-0.36917514725749234
-0.48094177112500347	-0.36161795038708455
-0.48088073596875347	-0.35391569296137854
-0.48081970081250347	-0.346048640270756
-0.48075866565625347	-0.33807352887954156
-0.48069763050000347	-0.3300357112189763
-0.48063659534375347	-0.32189693745072984
-0.48057556018750347	-0.3136004559195914
-0.48051452503125347	-0.30517016149496917
-0.48045348987500347	-0.29667866812839333
-0.48039245471875347	-0.2881320272726114
-0.48033141956250347	-0.27946105227128765
-0.48027038440625347	-0.2706385928519622
-0.48020934925000347	-0.261731853751429
-0.48014831409375347	-0.25279896932763435
-0.48008727893750347	-0.24379576850745058
-0.48002624378125347	-0.23464993900183598
-0.47996520862500347	-0.2253863306752861
-0.47990417346875347	-0.2160950691497878
-0.47984313831250347	-0.20678821619232118
-0.47978210315625347	-0.19738054772061187
-0.47972106800000347	-0.1878330946697125
-0.47966003284375347	-0.17822630326133557
-0.47959899768750347	-0.16863606133851233
-0.47953796253125347	-0.15901104521460951
-0.47947692737500347	-0.1492579723462326
-0.47941589221875347	-0.1394017724034188
-0.47935485706250347	-0.12955480179569426
-0.47929382190625347	-0.11973776037603054
-0.47923278675000347	-0.10984624885607032
-0.47917175159375347	-0.09982563897174393
-0.47911071643750347	-0.08977017300656245
-0.47904968128125347	-0.07977680148106016
-0.47898864612500347	-0.06978844760727754
-0.47892761096875347	-0.059688896421231215
-0.47886657581250347	-0.04950049362227238
-0.47880554065625347	-0.0393578962859437
-0.47874450550000347	-0.029292960719536118
-0.47868347034375347	-0.019183142877894854
-0.47862243518750347	-0.008955885323273355
-0.47856140003125347	0.0012830205918315184
-0.47850036487500347	0.011414101172678777
-0.47843932971875347	0.021497157323019277
-0.47837829456250347	0.031671650070221456
-0.47831725940625347	0.04192137973061588
-0.47825622425000347	0.052091333902964686
-0.47819518909375347	0.06213581288114281
-0.47813415393750347	0.07219164712379701
-0.47807311878125347	0.08235041235636135
-0.47801208362500347	0.09250006106546886
-0.47795104846875347	0.10250025586857599
-0.47789001331250347	0.11240846380734161
-0.47782897815625347	0.12238322795489216
-0.47776794300000347	0.13241824224213838
-0.47770690784375347	0.14234450902915335
-0.47764587268750347	0.15210178247322872
-0.47758483753125347	0.16183433092566396
-0.47752380237500347	0.17164993079254534
-0.47746276721875347	0.18143604489888956
-0.47740173206250347	0.1910377617903864
-0.47734069690625347	0.20050752662816934
-0.47727966175000347	0.2100150859355197
-0.47721862659375347	0.21956358051340122
-0.47715759143750347	0.22897831913842986
-0.47709655628125347	0.23818797977257938
-0.47703552112500347	0.24733678266913575
-0.47697448596875347	0.25654284408839934
-0.47691345081250347	0.2656994734947614
-0.47685241565625347	0.2746458074848835
-0.47679138050000347	0.28342586447092527
-0.47673034534375347	0.2922103844033344
-0.47666931018750347	0.3010110242559829
-0.47660827503125347	0.30965725177877235
-0.47654723987500347	0.3180725612041627
-0.47648620471875347	0.32639465894344644
-0.47642516956250347	0.33474352573190996
-0.47636413440625347	0.34302039354809427
-0.47630309925000347	0.351066899825165
-0.47624206409375347	0.3589205360927049
-0.47618102893750347	0.36674670941738235
-0.47611999378125347	0.3745618918367341
-0.47605895862500347	0.3822041322855725
-0.47599792346875347	0.38959638224332765
-0.47593688831250347	0.39686727993871035
-0.47587585315625347	0.4041335576173467
-0.47581481800000347	0.4113052034496863
-0.47575378284375347	0.4182320093996415
-0.47569274768750347	0.4249464475717904
-0.47563171253125347	0.4316036301171575
-0.47557067737500347	0.4382215034225273
-0.47550964221875347	0.4446500569782418
-0.47544860706250347	0.4508162239641675
-0.47538757190625347	0.4568388362710679
-0.47532653675000347	0.4628274262245106
-0.47526550159375347	0.4686994557247211
-0.47520446643750347	0.4743151762307946
-0.47514343128125347	0.47970440828799893
-0.47508239612500347	0.48501205031869893
-0.47502136096875347	0.490255710930513
-0.47496032581250347	0.4952956995766693
-0.47489929065625347	0.5000634636657318
-0.47483825550000347	0.5046702039232462
-0.47477722034375347	0.5092193536849047
-0.47471618518750347	0.5136344841131774
-0.47465515003125347	0.5177845064839968
-0.47459411487500347	0.5216968180016835
-0.47453307971875347	0.5255079647962719
-0.47447204456250347	0.5292363088248724
-0.47441100940625347	0.5327513657939345
-0.47434997425000347	0.5359873199342365
-0.47428893909375347	0.5390478967406335
-0.47422790393750347	0.5420324793988786
-0.47416686878125347	0.5448718788930763
-0.47410583362500347	0.547442146530662
-0.47404479846875347	0.5497663351879191
-0.47398376331250347	0.5519732999815612
-0.47392272815625347	0.5540843778282002
-0.47386169300000347	0.5559787626581454
-0.47380065784375347	0.5575915443311862
-0.47373962268750347	0.5590178301948631
-0.47367858753125347	0.5603543369460859
-0.47361755237500347	0.5615406501472314
-0.47355651721875347	0.5624591561899932
-0.47349548206250347	0.563127005976382
-0.47343444690625347	0.5636656978020599
-0.47337341175000347	0.5641010772334653
-0.47331237659375347	0.5643223195127217
-0.47325134143750347	0.5642642269053649
-0.47319030628125347	0.5640124020674048
-0.47312927112500347	0.5636614676654429
-0.47306823596875347	0.5631610807573886
-0.47300720081250347	0.562400374167454
-0.47294616565625347	0.5613895173307122
-0.47288513050000347	0.5602414387752263
-0.47282409534375347	0.558986860274779
-0.47276306018750347	0.5575263763188847
-0.47270202503125347	0.5557950197161732
-0.47264098987500347	0.55386795149841
-0.47257995471875347	0.5518366291247766
-0.47251891956250347	0.5496609121554301
-0.47245788440625347	0.5472378564682623
-0.47239684925000347	0.5445712663301545
-0.47233581409375347	0.5417645273075722
-0.47227477893750347	0.5388520013871544
-0.47221374378125347	0.5357462104548514
-0.47215270862500347	0.5323841071105182
-0.47209167346875347	0.5288306413229896
-0.47203063831250347	0.5251721896320005
-0.47196960315625347	0.5213774771101777
-0.47190856800000347	0.5173529957800654
-0.47184753284375347	0.5130985966298598
-0.47178649768750347	0.508707739744269
-0.47172546253125347	0.5042154224268663
-0.47166442737500347	0.49954483606474326
-0.47160339221875347	0.4946375368060539
-0.47154235706250347	0.4895507975819691
-0.47148132190625347	0.48436399223336
-0.47142028675000347	0.47905134379384695
-0.47135925159375347	0.47352950185121756
-0.47129821643750347	0.4677979152250745
-0.47123718128125347	0.46194066058801475
-0.47117614612500347	0.4559900943938235
-0.47111511096875347	0.4498783253699202
-0.47105407581250347	0.44355375181968343
-0.47099304065625347	0.4370683221125544
-0.47093200550000347	0.43049351922780704
-0.47087097034375347	0.42380651661569546
-0.47080993518750347	0.4169334670037824
-0.47074890003125347	0.40987527527917295
-0.47068786487500347	0.4027080800876618
-0.47062682971875347	0.39546059265631467
-0.47056579456250347	0.3880720174463756
-0.47050475940625347	0.38049775495353355
-0.47044372425000347	0.3727861132340849
-0.47038268909375347	0.3650008957161794
-0.47032165393750347	0.3571206967326063
-0.47026061878125347	0.34908054599214156
-0.47019958362500347	0.3408839071585771
