Time	Frequency
-0.5000057214374998	9.432541979713515e-24
-0.4999446862812498	8.795558921762486e-24
-0.4998836511249998	8.156559539454328e-24
-0.4998226159687498	7.522419194900366e-24
-0.4997615808124998	6.886134139595158e-24
-0.4997005456562498	6.2405442666793164e-24
-0.4996395104999998	5.592417231947568e-24
-0.4995784753437498	4.949831567823184e-24
-0.4995174401874998	4.307021523560302e-24
-0.4994564050312498	3.655778903845846e-24
-0.4993953698749998	3.0015373000092208e-24
-0.4993343347187498	2.3532764921039786e-24
-0.4992732995624998	1.7066581965342033e-24
-0.4992122644062498	1.0527295889516338e-24
-0.4991512292499998	3.954154751654631e-25
-0.4990901940937498	-2.557448829884673e-25
-0.4990291589374998	-9.035617768465877e-25
-0.4989681237812498	-1.5573424244716086e-24
-0.4989070886249998	-2.21462476039218e-24
-0.4988460534687498	-2.8656746738828555e-24
-0.4987850183124998	-3.5118900994940304e-24
-0.4987239831562498	-4.162640459000678e-24
-0.4986629479999998	-4.81687115692212e-24
-0.4986019128437498	-5.464950995786146e-24
-0.4985408776874998	-6.1069161336742316e-24
-0.4984798425312498	-6.751869123179663e-24
-0.4984188073749998	-7.400013121435075e-24
-0.4983577722187498	-8.042087223153428e-24
-0.4982967370624998	-8.676966224254628e-24
-0.4982357019062498	-9.313315053280525e-24
-0.4981746667499998	-9.952425068173757e-24
-0.4981136315937498	-1.0585557277745842e-23
-0.4980525964374998	-1.1210610079511624e-23
-0.4979915612812498	-1.1835681839137819e-23
-0.4979305261249998	-1.246293820770325e-23
-0.4978694909687498	-1.3084232725721195e-23
-0.4978084558124998	-1.369666971413489e-23
-0.4977474206562498	-1.4307721527854435e-23
-0.4976863854999998	-1.4920272878581865e-23
-0.4976253503437498	-1.552683183369522e-23
-0.4975643151874998	-1.612387036079599e-23
-0.4975032800312498	-1.6718238495433172e-23
-0.4974422448749998	-1.731343189902135e-23
-0.4973812097187498	-1.790259696726977e-23
-0.4973201745624998	-1.8481634162634423e-23
-0.4972591394062498	-1.9056718180919717e-23
-0.4971981042499998	-1.9631838733126887e-23
-0.4971370690937498	-2.0200812249448877e-23
-0.4970760339374998	-2.0759136010769677e-23
-0.4970149987812498	-2.1312402555776648e-23
-0.4969539636249998	-2.186500281418317e-23
-0.4968929284687498	-2.2411306093304048e-23
-0.4968318933124998	-2.2946407512441928e-23
-0.4967708581562498	-2.3475347777227575e-23
-0.4967098229999998	-2.400292496032124e-23
-0.4966487878437498	-2.452408359981885e-23
-0.4965877526874998	-2.5033536942699258e-23
-0.4965267175312498	-2.5535756477681763e-23
-0.4964656823749998	-2.6035936709332888e-23
-0.4964046472187498	-2.652963459821954e-23
-0.4963436120624998	-2.7011187376749063e-23
-0.4962825769062498	-2.748443548867371e-23
-0.4962215417499998	-2.795494619441283e-23
-0.4961605065937498	-2.8418947403908865e-23
-0.4960994714374998	-2.887043387766822e-23
-0.4960384362812498	-2.9312551595593025e-23
-0.4959774011249998	-2.975120494633663e-23
-0.4959163659687498	-3.018338764002414e-23
-0.4958553308124998	-3.060282317481038e-23
-0.4957942956562498	-3.1011876768380333e-23
-0.4957332604999998	-3.1416692561046374e-23
-0.4956722253437498	-3.181507482572945e-23
-0.4956111901874998	-3.220054997848509e-23
-0.4955501550312498	-3.257466068458103e-23
-0.4954891198749998	-3.294373800088348e-23
-0.4954280847187498	-3.3306481656778847e-23
-0.4953670495624998	-3.3656314460308665e-23
-0.4953060144062498	-3.3993859263043996e-23
-0.4952449792499998	-3.432548312431504e-23
-0.4951839440937498	-3.465083741107558e-23
-0.4951229089374998	-3.4963417045780487e-23
-0.4950618737812498	-3.526292927560798e-23
-0.4950008386249998	-3.555561397952873e-23
-0.4949398034687498	-3.58420343924039e-23
-0.4948787683124998	-3.6115894381613086e-23
-0.4948177331562498	-3.6376028014661643e-23
-0.4947566979999998	-3.662843108814184e-23
-0.4946956628437498	-3.687455152072258e-23
-0.4946346276874998	-3.710842410723639e-23
-0.4945735925312498	-3.7328034479411464e-23
-0.4945125573749998	-3.7538995609325295e-23
-0.4944515222187498	-3.774359669513377e-23
-0.4943904870624998	-3.793635619929244e-23
-0.4943294519062498	-3.811449885663809e-23
-0.4942684167499998	-3.82831121029645e-23
-0.4942073815937498	-3.8445191907614155e-23
-0.4941463464374998	-3.8595841740333793e-23
-0.4940853112812498	-3.8731668833625985e-23
-0.4940242761249998	-3.88571727425962e-23
-0.4939632409687498	-3.8975941787477715e-23
-0.4939022058124998	-3.9083728761440747e-23
-0.4938411706562498	-3.91766244405295e-23
-0.4937801354999998	-3.925846856803109e-23
-0.4937191003437498	-3.9333331431446865e-23
-0.4936580651874998	-3.9397666446825557e-23
-0.4935970300312498	-3.944716335420646e-23
-0.4935359948749998	-3.948497597057077e-23
-0.4934749597187498	-3.9515541890256387e-23
-0.4934139245624998	-3.9536034980044263e-23
-0.4933528894062498	-3.9541862892406436e-23
-0.4932918542499998	-3.953547644856392e-23
-0.4932308190937498	-3.952156221137937e-23
-0.4931697839374998	-3.949802266669573e-23
-0.4931087487812498	-3.946009221783626e-23
-0.4930477136249998	-3.940952175991997e-23
-0.4929866784687498	-3.935115120811551e-23
-0.4929256433124998	-3.9283600878167295e-23
-0.4928646081562498	-3.9202017498605644e-23
-0.4928035729999998	-3.9107468993483276e-23
-0.4927425378437498	-3.900486893073329e-23
-0.4926815026874998	-3.8893529943574385e-23
-0.4926204675312498	-3.876857946320083e-23
-0.4925594323749998	-3.863043140529807e-23
-0.4924983972187498	-3.8484021503401126e-23
-0.4924373620624998	-3.8329335816946437e-23
-0.4923763269062498	-3.8161530920520555e-23
-0.4923152917499998	-3.7980369162002856e-23
-0.4922542565937498	-3.7790741136278096e-23
-0.4921932214374998	-3.7593311479414403e-23
-0.4921321862812498	-3.738335314361341e-23
-0.4920711511249998	-3.7159979117314266e-23
-0.4920101159687498	-3.692794709808861e-23
-0.4919490808124998	-3.6688582321807423e-23
-0.4918880456562498	-3.6437339619385973e-23
-0.4918270104999998	-3.617269905674562e-23
-0.4917659753437498	-3.5899240636335086e-23
-0.4917049401874998	-3.5618955962094267e-23
-0.4916439050312498	-3.5327530321371336e-23
-0.4915828698749998	-3.5022795800333086e-23
-0.4915218347187498	-3.470908421755294e-23
-0.4914607995624998	-3.4389043567220915e-23
-0.4913997644062498	-3.4058670336725214e-23
-0.4913387292499998	-3.3715179991400765e-23
-0.4912776940937498	-3.336257512863141e-23
-0.4912166589374998	-3.3004140725959074e-23
-0.4911556237812498	-3.263627428614859e-23
-0.4910945886249998	-3.225556922647767e-23
-0.4910335534687498	-3.186559116266207e-23
-0.4909725183124998	-3.147026088728985e-23
-0.4909114831562498	-3.1066484185069695e-23
-0.4908504479999998	-3.0650270437798093e-23
-0.4907894128437498	-3.022466290137902e-23
-0.4907283776874998	-2.979414713741664e-23
-0.4906673425312498	-2.93561992477231e-23
-0.4906063073749998	-2.89063102539435e-23
-0.4905452722187498	-2.844692482442538e-23
-0.4904842370624998	-2.798304731315206e-23
-0.4904232019062498	-2.751285203674846e-23
-0.4903621667499998	-2.703137406977162e-23
-0.4903011315937498	-2.6540305703678555e-23
-0.4902400964374998	-2.6045060665627947e-23
-0.4901790612812498	-2.554461047117529e-23
-0.4901180261249998	-2.503363362866952e-23
-0.4900569909687498	-2.451302530784662e-23
-0.4899959558124998	-2.3988564997059142e-23
-0.4899349206562498	-2.346009034823649e-23
-0.4898738854999998	-2.292197624840096e-23
-0.4898128503437498	-2.2374209246079943e-23
-0.4897518151874998	-2.1822799715196374e-23
-0.4896907800312498	-2.1268540566505368e-23
-0.4896297448749998	-2.070567621472691e-23
-0.4895687097187498	-2.0133239066771614e-23
-0.4895076745624998	-1.9557310041740958e-23
-0.4894466394062498	-1.8979655329339192e-23
-0.4893856042499998	-1.839452504202427e-23
-0.4893245690937498	-1.7799982721045792e-23
-0.4892635339374998	-1.7202069864335095e-23
-0.4892024987812498	-1.6603565587273408e-23
-0.4891414636249998	-1.5998845943029467e-23
-0.4890804284687498	-1.5384961760462962e-23
-0.4890193933124998	-1.4767745908444238e-23
-0.4889583581562498	-1.4150977656694118e-23
-0.4888973229999998	-1.3529315238134874e-23
-0.4888362878437498	-1.2898808155819047e-23
-0.4887752526874998	-1.2264932843605566e-23
-0.4887142175312498	-1.163251218508647e-23
-0.4886531823749998	-1.0996717028390363e-23
-0.4885921472187498	-1.035260033900959e-23
-0.4885311120624998	-9.705029967483448e-24
-0.4884700769062498	-9.059779775003908e-24
-0.4884090417499998	-8.412680059497163e-24
-0.4883480065937498	-7.75783885036068e-24
-0.4882869714374998	-7.099394612530655e-24
-0.4882259362812498	-6.4440557603293765e-24
-0.4881649011249998	-5.7884906050944096e-24
-0.4881038659687498	-5.1259373168188185e-24
-0.4880428308124998	-4.459607456155713e-24
-0.4879817956562498	-3.797032087019609e-24
-0.4879207604999998	-3.135931080697199e-24
-0.4878597253437498	-2.468807636768365e-24
-0.4877986901874998	-1.7977221717672023e-24
-0.4877376550312498	-1.1308315000654193e-24
-0.4876766198749998	-4.670549222197733e-25
-0.4876155847187498	2.0166033634599321e-25
-0.4875545495624998	8.745142122527049e-25
-0.4874935144062498	1.5428468714335216e-24
-0.4874324792499998	2.2063656988046898e-24
-0.4873714440937498	2.8735131555856775e-24
-0.4873104089374998	3.544957151551325e-24
-0.4872493737812498	4.211785416128883e-24
-0.4871883386249998	4.872177692076117e-24
-0.4871273034687498	5.534695913661222e-24
-0.4870662683124998	6.2015815715445676e-24
-0.4870052331562498	6.863959157649378e-24
-0.4869441979999998	7.518407319901978e-24
-0.4868831628437498	8.173284039381774e-24
-0.4868221276874998	8.832450708606926e-24
-0.4867610925312498	9.487400866526836e-24
-0.4867000573749998	1.0133097488719268e-23
-0.4866390222187498	1.0777380914179631e-23
-0.4865779870624998	1.1425704707093235e-23
-0.4865169519062498	1.2070221672265323e-23
-0.4864559167499998	1.2704346555721762e-23
-0.4863948815937498	1.3335139946936177e-23
-0.4863338464374998	1.3969579604426225e-23
-0.4862728112812498	1.4600755386060616e-23
-0.4862117761249998	1.5220606415547123e-23
-0.4861507409687498	1.5835081638838547e-23
-0.4860897058124998	1.645256343617425e-23
-0.4860286706562498	1.706743972260384e-23
-0.4859676354999998	1.767037551126619e-23
-0.4859066003437498	1.8265880358917042e-23
-0.4858455651874998	1.886345601795669e-23
-0.4857845300312498	1.9459057935603014e-23
-0.4857234948749998	2.0042422919088922e-23
-0.4856624597187498	2.061641246184458e-23
-0.4856014245624998	2.1191310696455725e-23
-0.4855403894062498	2.176482051890879e-23
-0.4854793542499998	2.232606461863411e-23
-0.4854183190937498	2.2876082724304578e-23
-0.4853572839374998	2.3425565156240712e-23
-0.4852962487812498	2.3974076369431027e-23
-0.4852352136249998	2.451060101797654e-23
-0.4851741784687498	2.5034379967855018e-23
-0.4851131433124998	2.555605064839097e-23
-0.4850521081562498	2.607694680499685e-23
-0.4849910729999998	2.6586292006329006e-23
-0.4849300378437498	2.7081590987622007e-23
-0.4848690026874998	2.757306426951782e-23
-0.4848079675312498	2.806372207870356e-23
-0.4847469323749998	2.8543400814670227e-23
-0.4846858972187498	2.9008084847232674e-23
-0.4846248620624998	2.946726484062405e-23
-0.4845638269062498	2.992535132079722e-23
-0.4845027917499998	3.037305655893479e-23
-0.4844417565937498	3.0805119161783526e-23
-0.4843807214374998	3.12300472746796e-23
-0.4843196862812498	3.165335441995637e-23
-0.4842586511249998	3.2066835509052913e-23
-0.4841976159687498	3.246431076408106e-23
-0.4841365808124998	3.2853178992666496e-23
-0.4840755456562498	3.323973090512968e-23
-0.4840145104999998	3.361690778095257e-23
-0.4839534753437498	3.3977922997681936e-23
-0.4838924401874998	3.432907123273506e-23
-0.4838314050312498	3.467715232282056e-23
-0.4837703698749998	3.501620425581118e-23
-0.4837093347187498	3.5339053364533467e-23
-0.4836482995624998	3.5650931643261925e-23
-0.4835872644062498	3.595893811815529e-23
-0.4835262292499998	3.62581655636481e-23
-0.4834651940937498	3.6541255824365116e-23
-0.4834041589374998	3.681245888162406e-23
-0.4833431237812498	3.707902076596109e-23
-0.4832820886249998	3.733700022704515e-23
-0.4832210534687498	3.7578975473743215e-23
-0.4831600183124998	3.780828817739249e-23
-0.4830989831562498	3.8032207841288176e-23
-0.4830379479999998	3.8247672673380657e-23
-0.4829769128437498	3.8447293928305877e-23
-0.4829158776874998	3.863361095533678e-23
-0.4828548425312498	3.8813874811131617e-23
-0.4827938073749998	3.898581045321306e-23
-0.4827327722187498	3.9142083975645965e-23
-0.4826717370624998	3.928451075269382e-23
-0.4826107019062498	3.9420304738252963e-23
-0.4825496667499998	3.954790511496683e-23
-0.4824886315937498	3.966003227866017e-23
-0.4824275964374998	3.9757824379363456e-23
-0.4823665612812498	3.984847346765947e-23
-0.4823055261249998	3.993113243613308e-23
-0.4822444909687498	3.9998573070814406e-23
-0.4821834558124998	4.0051223820042533e-23
-0.4821224206562498	4.009623624733568e-23
-0.4820613854999998	4.0133519316576805e-23
-0.4820003503437498	4.015593282038214e-23
-0.4819393151874998	4.0163156537428643e-23
-0.4818782800312498	4.016225207080196e-23
-0.4818172448749998	4.0153924053275193e-23
-0.4817562097187498	4.0131184027791476e-23
-0.4816951745624998	4.00929173027576e-23
-0.4816341394062498	4.0046012249889843e-23
-0.4815731042499998	3.9992013529103135e-23
-0.4815120690937498	3.992418675206075e-23
-0.4814510339374998	3.984059061944199e-23
-0.4813899987812498	3.974782462178726e-23
-0.4813289636249998	3.96482916185003e-23
-0.4812679284687498	3.9535638219882526e-23
-0.4812068933124998	3.9407096320990384e-23
-0.4811458581562498	3.9268843276160804e-23
-0.4810848229999998	3.912411709483669e-23
-0.4810237878437498	3.8967080759181933e-23
-0.4809627526874998	3.8794183329171093e-23
-0.4809017175312498	3.861103665180314e-23
-0.4808406823749998	3.842164761436529e-23
-0.4807796472187498	3.822084016618523e-23
-0.4807186120624998	3.8004370123211274e-23
-0.4806575769062498	3.7777154606219563e-23
-0.4805965417499998	3.7543864148807686e-23
-0.4805355065937498	3.730010201551382e-23
-0.4804744714374998	3.704104821880824e-23
-0.4804134362812498	3.6770807901041827e-23
-0.4803524011249998	3.649457757348396e-23
-0.4802913659687498	3.62088356163559e-23
-0.4802303308124998	3.590833858873029e-23
-0.4801692956562498	3.559631872712604e-23
-0.4801082604999998	3.527834047822823e-23
-0.4800472253437498	3.495179071846891e-23
-0.4799861901874998	3.461116448188316e-23
-0.4799251550312498	3.425881129914992e-23
-0.4798641198749998	3.3900503345325766e-23
-0.4798030847187498	3.353452749224168e-23
-0.4797420495624998	3.3155262431846073e-23
-0.4796810144062498	3.276417583107223e-23
-0.4796199792499998	3.2367107012056447e-23
-0.4795589440937498	3.1963246374886734e-23
-0.4794979089374998	3.1547000712386365e-23
-0.4794368737812498	3.1118986335346377e-23
-0.4793758386249998	3.0684982064557626e-23
-0.4793148034687498	3.024500404859387e-23
-0.4792537683124998	2.9793580883590587e-23
-0.4791927331562498	2.9330553019332155e-23
-0.4791316979999998	2.886154112595972e-23
-0.4790706628437498	2.838734323018434e-23
-0.4790096276874998	2.790273653904284e-23
-0.4789485925312498	2.7406832768953786e-23
-0.4788875573749998	2.6904975737078415e-23
-0.4788265222187498	2.6398664948943214e-23
-0.4787654870624998	2.5882993019149932e-23
-0.4787044519062498	2.5356416523893588e-23
-0.4786434167499998	2.4823962668050612e-23
-0.4785823815937498	2.4287784142221964e-23
-0.4785213464374998	2.3743336510731135e-23
-0.4784603112812498	2.3188478740837064e-23
-0.4783992761249998	2.2627870305000727e-23
-0.4783382409687498	2.2064235615393652e-23
-0.4782772058124998	2.1493426391900916e-23
-0.4782161706562498	2.0912770206007015e-23
-0.4781551354999998	2.0326529254737844e-23
-0.4780941003437498	1.973796656090037e-23
-0.4780330651874998	1.9143379854313494e-23
-0.4779720300312498	1.8539581565590144e-23
-0.4779109948749998	1.793035017886748e-23
-0.4778499597187498	1.7319448130889718e-23
-0.4777889245624998	1.6703713240402983e-23
-0.4777278894062498	1.6079516740399726e-23
-0.4776668542499998	1.5450106099916861e-23
-0.4776058190937498	1.4819675258987972e-23
-0.4775447839374998	1.4185596538210962e-23
-0.4774837487812498	1.354380886634243e-23
-0.4774227136249998	1.289701048255728e-23
-0.4773616784687498	1.2249841479600594e-23
-0.4773006433124998	1.1600283066172734e-23
-0.4772396081562498	1.0943879643278896e-23
-0.4771785729999998	1.0282696969199776e-23
-0.4771175378437498	9.621712396228516e-24
-0.4770565026874998	8.959557316233788e-24
-0.4769954675312498	8.291490593001193e-24
-0.4769344323749998	7.618924320765493e-24
-0.4768733972187498	6.947120916392409e-24
-0.4768123620624998	6.275412914330801e-24
-0.4767513269062498	5.598788183039052e-24
-0.4766902917499998	4.917904141324615e-24
-0.4766292565937498	4.238268212479727e-24
-0.4765682214374998	3.560021883239766e-24
-0.4765071862812498	2.877966511484393e-24
-0.4764461511249998	2.1919253160981134e-24
-0.4763851159687498	1.507520212668583e-24
-0.4763240808124998	8.257410057962812e-25
-0.4762630456562498	1.4136043728184602e-25
-0.4762020104999998	-5.466456634958049e-25
-0.4761409753437498	-1.2326847789472427e-24
-0.4760799401874998	-1.9148936804238432e-24
-0.4760189050312498	-2.5984237616571045e-24
-0.4759578698749998	-3.2852129121352646e-24
-0.4758968347187498	-3.9698021063673765e-24
-0.4758357995624998	-4.649402687791105e-24
-0.4757747644062498	-5.328964763506545e-24
-0.4757137292499998	-6.0113374354290516e-24
-0.4756526940937498	-6.691324224710838e-24
-0.4755916589374998	-7.365222563242207e-24
-0.4755306237812498	-8.037668516331757e-24
-0.4754695886249998	-8.712451019610147e-24
-0.4754085534687498	-9.384762801410282e-24
-0.4753475183124998	-1.0049977298130332e-23
-0.4752864831562498	-1.0712252421862e-23
-0.4752254479999998	-1.1376243928002406e-23
-0.4751644128437498	-1.2037702690829103e-23
-0.4751033776874998	-1.269119083144878e-23
-0.4750423425312498	-1.334026140679572e-23
-0.4749813073749998	-1.3990382565517543e-23
-0.4749202722187498	-1.4637996418000415e-23
-0.4748592370624998	-1.5276877112907174e-23
-0.4747982019062498	-1.5909793602955712e-23
-0.4747371667499998	-1.6542941497239046e-23
-0.4746761315937498	-1.7173621582540816e-23
-0.4746150964374998	-1.779495900097097e-23
-0.4745540612812498	-1.8408831363212533e-23
-0.4744930261249998	-1.902206543258823e-23
-0.4744319909687498	-1.9632928581803575e-23
-0.4743709558124998	-2.0233943265627565e-23
-0.4743099206562498	-2.0825937958159885e-23
-0.4742488854999998	-2.1416297672002165e-23
-0.4741878503437498	-2.2004450115211772e-23
-0.4741268151874998	-2.2582475115330023e-23
-0.4740657800312498	-2.3149976053995544e-23
-0.4740047448749998	-2.3714665685170874e-23
-0.4739437097187498	-2.427724756346704e-23
-0.4738826745624998	-2.4829600616648445e-23
-0.4738216394062498	-2.5370047229965095e-23
-0.4737606042499998	-2.590643442837084e-23
-0.4736995690937498	-2.644080743814912e-23
-0.4736385339374998	-2.696501424984397e-23
-0.4735774987812498	-2.747598322270131e-23
-0.4735164636249998	-2.798147657176922e-23
-0.4734554284687498	-2.8484982483752855e-23
-0.4733943933124998	-2.8978591979893786e-23
-0.4733333581562498	-2.9457818313930073e-23
-0.4732723229999998	-2.9930086992205296e-23
-0.4732112878437498	-3.040032805714693e-23
-0.4731502526874998	-3.0861101420721245e-23
-0.4730892175312498	-3.1306458520043005e-23
-0.4730281823749998	-3.174322308314378e-23
-0.4729671472187498	-3.217781641079438e-23
-0.4729061120624998	-3.2603587688490023e-23
-0.4728450769062498	-3.3013154476793506e-23
-0.4727840417499998	-3.341240517461719e-23
-0.4727230065937498	-3.380915080834284e-23
-0.4726619714374998	-3.419786232310283e-23
-0.4726009362812498	-3.456987235397258e-23
-0.4725399011249998	-3.4929820574286693e-23
-0.4724788659687498	-3.5286732195754067e-23
-0.4724178308124998	-3.563647376072174e-23
-0.4723567956562498	-3.596927392721627e-23
-0.4722957604999998	-3.6288269477784344e-23
-0.4722347253437498	-3.660350815687596e-23
-0.4721736901874998	-3.6912523916395024e-23
-0.4721126550312498	-3.7204691913113523e-23
-0.4720516198749998	-3.74813809968863e-23
-0.4719905847187498	-3.7753341909148355e-23
-0.4719295495624998	-3.8019995034972703e-23
-0.4718685144062498	-3.8270215881399826e-23
-0.4718074792499998	-3.8503433159705576e-23
-0.4717464440937498	-3.8730732960640524e-23
