Time	Frequency
-0.5000152515625	0.6888172936026946
-0.49995421640625004	0.6898520003653624
-0.49989318125000004	0.690878197810998
-0.49983214609375004	0.6918960505653243
-0.49977111093750004	0.6929057273746556
-0.49971007578125004	0.6939073943643752
-0.49964904062500004	0.6949012083761863
-0.49958800546875004	0.6958873105862695
-0.49952697031250004	0.6968658207209548
-0.49946593515625004	0.6978368320715442
-0.49940490000000004	0.6988004074355765
-0.49934386484375004	0.6997565761845848
-0.49928282968750004	0.7007053325809557
-0.49922179453125004	0.7016466354260784
-0.49916075937500004	0.7025804090581754
-0.49909972421875004	0.7035065455975889
-0.49903868906250004	0.7044249083830548
-0.49897765390625004	0.7053353365089615
-0.49891661875000004	0.7062376502441524
-0.49885558359375004	0.7071316571447085
-0.49879454843750004	0.7080171587189829
-0.49873351328125004	0.7088939573727528
-0.49867247812500004	0.7097618632730706
-0.49861144296875004	0.7106207008892194
-0.49855040781250004	0.7114703150083695
-0.49848937265625004	0.7123105759876469
-0.49842833750000004	0.7131413840627904
-0.49836730234375004	0.7139626725440166
-0.49830626718750004	0.7147744097479487
-0.49824523203125004	0.7155765996015396
-0.49818419687500004	0.7163692809307826
-0.49812316171875004	0.7171525254741833
-0.49806212656250004	0.7179264346403331
-0.49800109140625004	0.7186911351127484
-0.49794005625000004	0.7194467735364789
-0.49787902109375004	0.7201935105078207
-0.49781798593750004	0.7209315140555458
-0.49775695078125004	0.7216609528514788
-0.49769591562500004	0.7223819894333985
-0.49763488046875004	0.7230947737156116
-0.49757384531250004	0.7237994370247702
-0.49751281015625004	0.7244960868756426
-0.49745177500000004	0.7251848026717684
-0.49739073984375004	0.7258656324793235
-0.49732970468750004	0.7265385910010257
-0.49726866953125004	0.7272036588375259
-0.49720763437500004	0.7278607830504248
-0.49714659921875004	0.7285098789571293
-0.49708556406250004	0.7291508330820811
-0.49702452890625004	0.7297835071960214
-0.49696349375000004	0.7304077432728702
-0.49690245859375004	0.7310233691225569
-0.49684142343750004	0.7316302044829119
-0.49678038828125004	0.7322280673737178
-0.49671935312500004	0.7328167804715707
-0.49665831796875004	0.7333961772164077
-0.49659728281250004	0.7339661074276779
-0.49653624765625004	0.7345264422887757
-0.49647521250000004	0.7350770785226494
-0.49641417734375004	0.7356179415421575
-0.49635314218750004	0.7361489874493716
-0.49629210703125004	0.7366702038744336
-0.49623107187500004	0.7371816096589959
-0.49617003671875004	0.7376832534020685
-0.49610900156250004	0.7381752109632147
-0.49604796640625004	0.7386575820637408
-0.49598693125000004	0.7391304860703626
-0.49592589609375004	0.7395940570880024
-0.49586486093750004	0.7400484386636348
-0.49580382578125004	0.7404937783261974
-0.49574279062500004	0.7409302220152612
-0.49568175546875004	0.7413579085464244
-0.49562072031250004	0.7417769643948975
-0.49555968515625004	0.7421874990511894
-0.49549865000000004	0.7425896011363065
-0.49543761484375004	0.7429833353880446
-0.49537657968750004	0.7433687405162887
-0.49531554453125004	0.7437458279573685
-0.49525450937500004	0.7441145816440643
-0.49519347421875004	0.7444749588309598
-0.49513243906250004	0.744826891912642
-0.49507140390625004	0.7451702911180875
-0.49501036875000004	0.7455050478989895
-0.49494933359375004	0.7458310388703727
-0.49488829843750004	0.7461481303087415
-0.49482726328125004	0.7464561830491967
-0.49476622812500004	0.746755057397009
-0.49470519296875004	0.7470446178776194
-0.49464415781250004	0.7473247377400659
-0.49458312265625004	0.7475953029782791
-0.49452208750000004	0.7478562157446892
-0.49446105234375004	0.7481073972016952
-0.49440001718750004	0.7483487897662189
-0.49433898203125004	0.7485803585565023
-0.49427794687500004	0.7488020919388383
-0.49421691171875004	0.7490140013122587
-0.49415587656250004	0.7492161202605263
-0.49409484140625004	0.7494085029154771
-0.49403380625000004	0.7495912214794007
-0.49397277109375004	0.7497643632115448
-0.49391173593750004	0.749928027000751
-0.49385070078125004	0.7500823194502482
-0.49378966562500004	0.7502273506401812
-0.49372863046875004	0.7503632298989076
-0.49366759531250004	0.7504900618548234
-0.49360656015625004	0.7506079427939464
-0.49354552500000004	0.7507169573000467
-0.49348448984375004	0.7508171753106015
-0.49342345468750004	0.7509086496909567
-0.49336241953125004	0.7509914144815633
-0.49330138437500004	0.7510654838805306
-0.49324034921875004	0.7511308518751707
-0.49317931406250004	0.7511874926149951
-0.49311827890625004	0.7512353615639223
-0.49305724375000004	0.7512743972882883
-0.49299620859375004	0.7513045237161393
-0.49293517343750004	0.7513256527939898
-0.49287413828125004	0.7513376875667939
-0.49281310312500004	0.7513405254898836
-0.49275206796875004	0.7513340618168849
-0.49269103281250004	0.7513181931830115
-0.49262999765625004	0.7512928212312471
-0.49256896250000004	0.7512578560240926
-0.49250792734375004	0.7512132192636448
-0.49244689218750004	0.7511588471243742
-0.49238585703125004	0.7510946923291989
-0.49232482187500004	0.7510207255708298
-0.49226378671875004	0.7509369365648904
-0.49220275156250004	0.7508433344776156
-0.49214171640625004	0.7507399473700318
-0.49208068125000004	0.7506268208507131
-0.49201964609375004	0.7505040162355783
-0.49195861093750004	0.7503716082779867
-0.49189757578125004	0.7502296824337878
-0.49183654062500004	0.7500783315792973
-0.49177550546875004	0.7499176522129517
-0.49171447031250004	0.7497477404646832
-0.49165343515625004	0.7495686883067381
-0.49159240000000004	0.7493805800631081
-0.49153136484375004	0.7491834891075815
-0.49147032968750004	0.7489774748584183
-0.49140929453125004	0.7487625802334265
-0.49134825937500004	0.7485388295082812
-0.49128722421875004	0.748306226901107
-0.49122618906250004	0.7480647563183918
-0.49116515390625004	0.7478143819739201
-0.49110411875000004	0.7475550495125146
-0.49104308359375004	0.7472866877822545
-0.49098204843750004	0.7470092114832221
-0.49092101328125004	0.7467225245257749
-0.49085997812500004	0.7464265236948665
-0.49079894296875004	0.7461211025880747
-0.49073790781250004	0.7458061558899941
-0.49067687265625004	0.7454815836293107
-0.49061583750000004	0.7451472950885318
-0.49055480234375004	0.7448032123184731
-0.49049376718750004	0.744449273321158
-0.49043273203125004	0.7440854348253038
-0.49037169687500004	0.743711674277016
-0.49031066171875004	0.7433279909106185
-0.49024962656250004	0.7429344059441638
-0.49018859140625004	0.7425309618157423
-0.49012755625000004	0.7421177207803875
-0.49006652109375004	0.741694762936577
-0.49000548593750004	0.7412621831918225
-0.48994445078125004	0.7408200872708416
-0.48988341562500004	0.7403685873990311
-0.48982238046875004	0.7399077980064745
-0.48976134531250004	0.7394378313263524
-0.48970031015625004	0.73895879298563
-0.48963927500000004	0.7384707779784064
-0.48957823984375004	0.7379738669928677
-0.48951720468750004	0.7374681232695334
-0.48945616953125004	0.7369535903997871
-0.48939513437500004	0.7364302909572533
-0.48933409921875004	0.7358982257551481
-0.48927306406250004	0.7353573738444522
-0.48921202890625004	0.7348076936008795
-0.48915099375000004	0.7342491247599183
-0.48908995859375004	0.73368159088015
-0.48902892343750004	0.7331050023936946
-0.48896788828125004	0.7325192604284693
-0.48890685312500004	0.7319242609210354
-0.48884581796875004	0.731319898691795
-0.48878478281250004	0.7307060715968284
-0.48872374765625004	0.7300826847994871
-0.48866271250000004	0.729449654863649
-0.48860167734375004	0.7288069132581214
-0.48854064218750004	0.728154409118821
-0.48847960703125004	0.7274921113073278
-0.48841857187500004	0.7268200098322581
-0.48835753671875004	0.7261381167902342
-0.48829650156250004	0.7254464667909285
-0.48823546640625004	0.7247451163913782
-0.48817443125000004	0.7240341422584599
-0.48811339609375004	0.7233136384063961
-0.48805236093750004	0.7225837129486592
-0.48799132578125004	0.7218444844361458
-0.48793029062500004	0.7210960774878699
-0.48786925546875004	0.7203386177869207
-0.48780822031250004	0.7195722272063709
-0.48774718515625004	0.718797019393306
-0.48768615000000004	0.718013095549067
-0.48762511484375004	0.7172205404793579
-0.48756407968750004	0.7164194193083402
-0.48750304453125004	0.7156097749010559
-0.48744200937500004	0.7147916257091892
-0.48738097421875004	0.7139649644773574
-0.48731993906250004	0.7131297584839014
-0.48725890390625004	0.7122859508778656
-0.48719786875000004	0.7114334628044408
-0.48713683359375004	0.7105721966642592
-0.48707579843750004	0.7097020401161395
-0.48701476328125004	0.7088228705109986
-0.48695372812500004	0.7079345601578475
-0.48689269296875004	0.7070369823188177
-0.48683165781250004	0.7061300172253773
-0.48677062265625004	0.7052135574450302
-0.48670958750000004	0.7042875124396787
-0.48664855234375004	0.7033518126842375
-0.48658751718750004	0.7024064134674718
-0.48652648203125004	0.7014512978494826
-0.48646544687500004	0.7004864781892954
-0.48640441171875004	0.6995119962343583
-0.48634337656250004	0.6985279221693358
-0.48628234140625004	0.6975343528323086
-0.48622130625000004	0.6965314089453459
-0.48616027109375004	0.6955192311935469
-0.48609923593750004	0.6944979752311081
-0.48603820078125004	0.6934678058783456
-0.48597716562500004	0.6924288909047254
-0.48591613046875004	0.6913813947615602
-0.48585509531250004	0.6903254725457514
-0.48579406015625004	0.6892612644821732
-0.48573302500000004	0.6881888908843986
-0.48567198984375004	0.6871084474433519
-0.48561095468750004	0.6860200012478216
-0.48554991953125004	0.6849235881711466
-0.48548888437500004	0.6838192117392144
-0.48542784921875004	0.6827068430886464
-0.48536681406250004	0.6815864219329236
-0.48530577890625004	0.6804578589719112
-0.48524474375000004	0.6793210397762449
-0.48518370859375004	0.6781758295063356
-0.48512267343750004	0.6770220782741011
-0.48506163828125004	0.6758596275943849
-0.48500060312500004	0.674688317591437
-0.48493956796875004	0.6735079940586768
-0.48487853281250004	0.6723185151444799
-0.48481749765625004	0.671119757712442
-0.48475646250000004	0.6699116233037751
-0.48469542734375004	0.6686940432252162
-0.48463439218750004	0.6674669819963062
-0.48457335703125004	0.6662304393931828
-0.48451232187500004	0.6649844517205762
-0.48445128671875004	0.6637290917391391
-0.48439025156250004	0.6624644664820633
-0.48432921640625004	0.661190713730229
-0.48426818125000004	0.6599079980154393
-0.48420714609375004	0.6586165053714158
-0.48414611093750004	0.6573164365344115
-0.48408507578125004	0.6560079994874626
-0.48402404062500004	0.6546914015846613
-0.48396300546875004	0.6533668414415369
-0.48390197031250004	0.6520345012530402
-0.48384093515625004	0.6506945397426482
-0.48377990000000004	0.6493470856238679
-0.48371886484375004	0.6479922318625151
-0.48365782968750004	0.6466300313369756
-0.48359679453125004	0.6452604943975617
-0.48353575937500004	0.643883588617645
-0.48347472421875004	0.6424992403424894
-0.48341368906250004	0.6411073375342821
-0.48335265390625004	0.6397077341552106
-0.48329161875000004	0.6383002561716585
-0.48323058359375004	0.6368847089839339
-0.48316954843750004	0.635460886076106
-0.48310851328125004	0.6340285782025807
-0.48304747812500004	0.6325875824397998
-0.48298644296875004	0.631137710788695
-0.48292540781250004	0.6296787981363376
-0.48286437265625004	0.6282107095143858
-0.48280333750000004	0.6267333467196228
-0.48274230234375004	0.6252466540197841
-0.48268126718750004	0.6237506222374526
-0.48262023203125004	0.6222452909647216
-0.48255919687500004	0.6207307487847962
-0.48249816171875004	0.6192071312148695
-0.48243712656250004	0.6176746168492747
-0.48237609140625004	0.6161334219811444
-0.48231505625000004	0.614583792985032
-0.48225402109375004	0.6130259967452855
-0.48219298593750004	0.6114603105963282
-0.48213195078125004	0.60988701200502
-0.48207091562500004	0.6083063676002975
-0.48200988046875004	0.6067186225017793
-0.48194884531250004	0.6051239910643978
-0.48188781015625004	0.6035226490426728
-0.48182677500000004	0.6019147270377179
-0.48176573984375004	0.6003003056334612
-0.48170470468750004	0.5986794125342625
-0.48164366953125004	0.5970520215943348
-0.48158263437500004	0.5954180535838369
-0.48152159921875004	0.5937773788097457
-0.48146056406250004	0.592129821853205
-0.48139952890625004	0.5904751683046717
-0.48133849375000004	0.5888131731520162
-0.48127745859375004	0.5871435707465654
-0.48121642343750004	0.5854660861604893
-0.48115538828125004	0.5837804472001812
-0.48109435312500004	0.5820863961344415
-0.48103331796875004	0.5803837005396433
-0.48097228281250004	0.5786721630934029
-0.48091124765625004	0.5769516300700733
-0.48085021250000004	0.5752219980012637
-0.48078917734375004	0.5734832182998257
-0.48072814218750004	0.5717352999284475
-0.48066710703125004	0.5699783099194836
-0.48060607187500004	0.5682123718384822
-0.48054503671875004	0.5664376625531291
-0.48048400156250004	0.564654406946939
-0.48042296640625004	0.5628628705284423
-0.48036193125000004	0.5610633508868978
-0.48030089609375004	0.5592561679746484
-0.48023986093750004	0.5574416527691083
-0.48017882578125004	0.5556201351097436
-0.48011779062500004	0.5537919314769217
-0.48005675546875004	0.5519573334432704
-0.47999572031250004	0.5501165980074557
-0.47993468515625004	0.5482699399897016
-0.47987365000000004	0.5464175257549296
-0.47981261484375004	0.5445594681876215
-0.47975157968750004	0.5426958235179099
-0.47969054453125004	0.5408265904269233
-0.47962950937500004	0.5389517114200792
-0.47956847421875004	0.53707107613551
-0.47950743906250004	0.5351845264737358
-0.47944640390625004	0.5332918638453025
-0.47938536875000004	0.5313928583130582
-0.47932433359375004	0.5294872590744322
-0.47926329843750004	0.5275748062330116
-0.47920226328125004	0.5256552429803983
-0.47914122812500004	0.5237283266088347
-0.47908019296875004	0.5217938380503218
-0.47901915781250004	0.5198515899084888
-0.47895812265625004	0.5179014328757873
-0.47889708750000004	0.5159432609486756
-0.47883605234375004	0.513977015032266
-0.47877501718750004	0.5120026846160095
-0.47871398203125004	0.5100203075459484
-0.47865294687500004	0.5080299666575414
-0.47859191171875004	0.5060317829823024
-0.47853087656250004	0.5040259069958374
-0.47846984140625004	0.5020125082296318
-0.47840880625000004	0.4999917629316828
-0.47834777109375004	0.4979638403363524
-0.47828673593750004	0.495928887127023
-0.47822570078125004	0.4938870101745403
-0.47816466562500004	0.49183826608779485
-0.47810363046875004	0.48978266957551536
-0.47804259531250004	0.4877202167303561
-0.47798156015625004	0.48565090719852816
-0.47792052500000004	0.483574757902757
-0.47785948984375004	0.4814918105624051
-0.47779845468750004	0.47940213554518685
-0.47773741953125004	0.4773058330380172
-0.47767638437500004	0.47520303185015234
-0.47761534921875004	0.47309388582154244
-0.47755431406250004	0.4709785682258651
-0.47749327890625004	0.4688572654437723
-0.47743224375000004	0.4667301703386409
-0.47737120859375004	0.4645974746030617
-0.47731017343750004	0.46245936030886936
-0.47724913828125004	0.46031599191322803
-0.47718810312500004	0.4581675096881104
-0.47712706796875004	0.45601402430375687
-0.47706603281250004	0.45385561214293957
-0.47700499765625004	0.4516923120254687
-0.47694396250000004	0.4495241235382752
-0.47688292734375004	0.44735100674511113
-0.47682189218750004	0.4451728836930385
-0.47676085703125004	0.4429896417436371
-0.47669982187500004	0.44080113817091265
-0.47663878671875004	0.43860720590605173
-0.47657775156250004	0.43640766041654766
-0.47651671640625004	0.4342023070235041
-0.47645568125000004	0.4319909482985966
-0.47639464609375004	0.4297733917568496
-0.47633361093750004	0.42754945742551315
-0.47627257578125004	0.425318984554335
-0.47621154062500004	0.4230818374533487
-0.47615050546875004	0.4208379108239255
-0.47608947031250004	0.4185871342479417
-0.47602843515625004	0.41632947508855417
-0.47596740000000004	0.41406493946876305
-0.47590636484375004	0.4117935714489226
-0.47584532968750004	0.40951545109905046
-0.47578429453125004	0.40723069202151446
-0.47572325937500004	0.4049394377129894
-0.47566222421875004	0.4026418561137106
-0.47560118906250004	0.4003381331096944
-0.47554015390625004	0.3980284659232802
-0.47547911875000004	0.3957130563003498
-0.47541808359375004	0.3933921035330967
-0.47535704843750004	0.3910657976153024
-0.47529601328125004	0.38873431262336866
-0.47523497812500004	0.38639780119776324
-0.47517394296875004	0.38405639069276054
-0.47511290781250004	0.38171017993560785
-0.47505187265625004	0.3793592363917158
-0.47499083750000004	0.37700359485425894
-0.47492980234375004	0.37464325791605624
-0.47486876718750004	0.3722781976225464
-0.47480773203125004	0.3699083576656057
-0.47474669687500004	0.36753365660840637
-0.47468566171875004	0.365153992866829
-0.47462462656250004	0.36276925040470975
-0.47456359140625004	0.3603793042182095
-0.47450255625000004	0.3579840260791425
-0.47444152109375004	0.35558329075887685
-0.47438048593750004	0.3531769822519159
-0.47431945078125004	0.3507649993081991
-0.47425841562500004	0.34834725976728276
-0.47419738046875004	0.3459237039059414
-0.47413634531250004	0.343494297243484
-0.47407531015625004	0.3410590326830322
-0.47401427500000004	0.33861793162309833
-0.47395323984375004	0.3361710438714863
-0.47389220468750004	0.33371844645300713
-0.47383116953125004	0.3312602412940297
-0.47377013437500004	0.3287965517146834
-0.47370909921875004	0.32632751839185964
-0.47364806406250004	0.32385329512475614
-0.47358702890625004	0.32137404376468953
-0.47352599375000004	0.3188899286271825
-0.47346495859375004	0.3164011114476301
-0.47340392343750004	0.31390774689989565
-0.47334288828125004	0.31140997820489086
-0.47328185312500004	0.308907933032659
-0.47322081796875004	0.3064017201614664
-0.47315978281250004	0.30389142671939806
-0.47309874765625004	0.3013771160116252
-0.47303771250000004	0.2988588270146767
-0.47297667734375004	0.296336575567077
-0.47291564218750004	0.2938103555108553
-0.47285460703125004	0.2912801397705054
-0.47279357187500004	0.28874588308399657
-0.47273253671875004	0.286207525988048
-0.47267150156250004	0.2836649984617242
-0.47261046640625004	0.28111822339572196
-0.47254943125000004	0.27856712075367396
-0.47248839609375004	0.2760116121611318
-0.47242736093750004	0.273451625249567
-0.47236632578125004	0.2708870977705725
-0.47230529062500004	0.26831798133576534
-0.47224425546875004	0.26574424415290754
-0.47218322031250004	0.2631658727593806
-0.47212218515625004	0.26058287353541537
-0.47206115000000004	0.2579952740724677
-0.47200011484375004	0.2554031234302971
-0.47193907968750004	0.2528064915997956
-0.47187804453125004	0.25020546902529234
-0.47181700937500004	0.2476001655542265
-0.47175597421875004	0.24499070832455178
-0.47169493906250004	0.2423772388619858
-0.47163390390625004	0.23975991002955674
-0.47157286875000004	0.23713888321920004
-0.47151183359375004	0.23451432500805808
-0.47145079843750004	0.23188640315917092
-0.47138976328125004	0.2292552830656402
-0.47132872812500004	0.2266211246880381
-0.47126769296875004	0.2239840790691605
-0.47120665781250004	0.2213442847803642
-0.47114562265625004	0.2187018654065267
-0.47108458750000004	0.21605692768038062
-0.47102355234375004	0.2134095595968488
-0.47096251718750004	0.21075982889112693
-0.47090148203125004	0.20810778229973464
-0.47084044687500004	0.20545344572006077
-0.47077941171875004	0.20279682480838182
-0.47071837656250004	0.20013790570188686
-0.47065734140625004	0.19747665664736605
-0.47059630625000004	0.19481303084893023
-0.47053527109375004	0.19214696959947244
-0.47047423593750004	0.18947840513444436
-0.47041320078125004	0.18680726369323739
-0.47035216562500004	0.1841334692364962
-0.47029113046875004	0.18145694726695605
-0.47023009531250004	0.17877762812084827
-0.47016906015625004	0.17609545013571504
-0.47010802500000004	0.17341036279190203
-0.47004698984375004	0.1707223290697231
-0.46998595468750004	0.16803132725072134
-0.46992491953125004	0.16533735292765706
-0.46986388437500004	0.16264042074299898
-0.46980284921875004	0.15994056503461396
-0.46974181406250004	0.1572378393332291
-0.46968077890625004	0.1545323153381044
-0.46961974375000004	0.1518240819261283
