Time	Frequency
-0.5000491957187503	-0.7396253172173156
-0.4999881605625003	-0.7382914057981365
-0.4999271254062503	-0.7369451510646967
-0.4998660902500003	-0.7355865557474348
-0.4998050550937503	-0.7342156268598591
-0.4997440199375003	-0.7328323755745715
-0.4996829847812503	-0.7314368172219026
-0.4996219496250003	-0.7300289714898475
-0.4995609144687503	-0.7286088625291005
-0.4994998793125003	-0.7271765189757405
-0.4994388441562503	-0.7257319738525403
-0.4993778090000003	-0.7242752640719247
-0.4993167738437503	-0.7228064298003654
-0.4992557386875003	-0.7213255140710877
-0.4991947035312503	-0.7198325624009967
-0.4991336683750003	-0.7183276221744889
-0.4990726332187503	-0.716810742033364
-0.4990115980625003	-0.7152819714587395
-0.4989505629062503	-0.7137413604166348
-0.4988895277500003	-0.7121889589010185
-0.4988284925937503	-0.7106248162983927
-0.4987674574375003	-0.7090489806789267
-0.4987064222812503	-0.7074614982322766
-0.4986453871250003	-0.70586241282224
-0.4985843519687503	-0.7042517655455426
-0.4985233168125003	-0.7026295943852374
-0.4984622816562503	-0.7009959340476501
-0.4984012465000003	-0.6993508159775925
-0.4983402113437503	-0.6976942685107627
-0.4982791761875003	-0.6960263170148057
-0.4982181410312503	-0.6943469838078957
-0.4981571058750003	-0.6926562878225568
-0.4980960707187503	-0.690954244396031
-0.4980350355625003	-0.689240865655821
-0.4979740004062503	-0.6875161612925214
-0.4979129652500003	-0.685780139055676
-0.4978519300937503	-0.6840328049166141
-0.4977908949375003	-0.6822741633049004
-0.4977298597812503	-0.6805042174963546
-0.4976688246250003	-0.6787229701416384
-0.4976077894687503	-0.6769304239899406
-0.4975467543125003	-0.6751265826304393
-0.4974857191562503	-0.6733114509488878
-0.4974246840000003	-0.671485035312837
-0.4973636488437503	-0.6696473438070379
-0.4973026136875003	-0.6677983865544801
-0.4972415785312503	-0.6659381760021291
-0.4971805433750003	-0.6640667272147834
-0.4971195082187503	-0.6621840581674783
-0.4970584730625003	-0.6602901899235469
-0.4969974379062503	-0.6583851466842914
-0.4969364027500003	-0.656468955815287
-0.4968753675937503	-0.654541647765892
-0.4968143324375003	-0.6526032558798763
-0.4967532972812503	-0.6506538162115159
-0.4966922621250003	-0.6486933671966739
-0.4966312269687503	-0.646721949233706
-0.4965701918125003	-0.6447396043778251
-0.4965091566562503	-0.6427463761106292
-0.4964481215000003	-0.6407423091377829
-0.4963870863437503	-0.6387274491445385
-0.4963260511875003	-0.6367018424543436
-0.4962650160312503	-0.6346655355973344
-0.4962039808750003	-0.6326185748820172
-0.4961429457187503	-0.6305610061455611
-0.4960819105625003	-0.6284928744484205
-0.4960208754062503	-0.6264142234993225
-0.4959598402500003	-0.6243250952181832
-0.4958988050937503	-0.6222255296335379
-0.4958377699375003	-0.6201155648211023
-0.4957767347812503	-0.6179952367591164
-0.4957156996250003	-0.6158645792075175
-0.4956546644687503	-0.6137236237301104
-0.4955936293125003	-0.6115723998506793
-0.4955325941562503	-0.6094109351503963
-0.4954715590000003	-0.6072392552636326
-0.4954105238437503	-0.605057383989563
-0.4953494886875003	-0.6028653437012667
-0.4952884535312503	-0.6006631558851172
-0.4952274183750003	-0.5984508413652798
-0.4951663832187503	-0.596228420366475
-0.4951053480625003	-0.593995912951253
-0.4950443129062503	-0.5917533394936167
-0.4949832777500003	-0.589500720917636
-0.4949222425937503	-0.5872380791880156
-0.4948612074375003	-0.5849654377720819
-0.4948001722812503	-0.5826828217183765
-0.4947391371250003	-0.5803902579811203
-0.4946781019687503	-0.5780877759153243
-0.4946170668125003	-0.5757754073535813
-0.4945560316562503	-0.573453186559205
-0.4944949965000003	-0.5711211503155986
-0.4944339613437503	-0.5687793379367634
-0.4943729261875003	-0.5664277911594591
-0.4943118910312503	-0.5640665540059157
-0.4942508558750003	-0.5616956725652826
-0.4941898207187503	-0.5593151945586078
-0.4941287855625003	-0.5569251687881069
-0.4940677504062503	-0.5545256447307323
-0.4940067152500003	-0.552116672309231
-0.4939456800937503	-0.5496983018027761
-0.4938846449375003	-0.547270583794331
-0.4938236097812503	-0.5448335688266239
-0.4937625746250003	-0.5423873067540318
-0.4937015394687503	-0.5399318461325427
-0.4936405043125003	-0.537467233886593
-0.4935794691562503	-0.5349935152669891
-0.4935184340000003	-0.5325107337471877
-0.4934573988437503	-0.530018930587879
-0.4933963636875003	-0.5275181443409008
-0.4933353285312503	-0.5250084106101555
-0.4932742933750003	-0.5224897621302089
-0.4932132582187503	-0.5199622291358179
-0.4931522230625003	-0.5174258398158668
-0.4930911879062503	-0.5148806206286631
-0.4930301527500003	-0.5123265965643379
-0.4929691175937503	-0.5097637915022692
-0.4929080824375003	-0.5071922286274251
-0.4928470472812503	-0.5046119308425052
-0.4927860121250003	-0.5020229212034044
-0.4927249769687503	-0.49942522338357426
-0.4926639418125003	-0.4968188621369421
-0.4926029066562503	-0.4942038637642454
-0.4925418715000003	-0.49158025657612187
-0.4924808363437503	-0.4889480713052153
-0.4924198011875003	-0.48630734147258514
-0.4923587660312503	-0.4836581036308887
-0.4922977308750003	-0.4810003973481302
-0.4922366957187503	-0.47833426516752586
-0.4921756605625003	-0.4756597527674305
-0.4921146254062503	-0.47297690901528133
-0.4920535902500003	-0.470285785602798
-0.4919925550937503	-0.46758643667396843
-0.4919315199375003	-0.46487891882168125
-0.4918704847812503	-0.46216329080606033
-0.4918094496250003	-0.45943961275717415
-0.4917484144687503	-0.45670794562688327
-0.4916873793125003	-0.4539683510502235
-0.4916263441562503	-0.4512208910372774
-0.4915653090000003	-0.4484656273503844
-0.4915042738437503	-0.44570262092173407
-0.4914432386875003	-0.4429319313259072
-0.4913822035312503	-0.4401536162650942
-0.4913211683750003	-0.43736773133837176
-0.4912601332187503	-0.4345743299773354
-0.4911990980625003	-0.43177346332580824
-0.4911380629062503	-0.4289651801083018
-0.4910770277500003	-0.42614952642412135
-0.4910159925937503	-0.4233265456145317
-0.4909549574375003	-0.4204962783618598
-0.4908939222812503	-0.41765876281463177
-0.4908328871250003	-0.41481403482137663
-0.4907718519687503	-0.4119621284594607
-0.4907108168125003	-0.40910307655450234
-0.4906497816562503	-0.4062369109368671
-0.4905887465000003	-0.4033636626654127
-0.4905277113437503	-0.4004833624532488
-0.4904666761875003	-0.39759604100419554
-0.4904056410312503	-0.3947017292058935
-0.4903446058750003	-0.3918004587038352
-0.4902835707187503	-0.38889226245339714
-0.4902225355625003	-0.38597717462579334
-0.4901615004062503	-0.3830552305938283
-0.4901004652500003	-0.3801264673892713
-0.4900394300937503	-0.37719092401163284
-0.4899783949375003	-0.3742486415473505
-0.4899173597812503	-0.3712996633613286
-0.4898563246250003	-0.36834403510146135
-0.4897952894687503	-0.3653818044451064
-0.4897342543125003	-0.362413020874955
-0.4896732191562503	-0.359437735544229
-0.4896121840000003	-0.3564560010781482
-0.4895511488437503	-0.35346787114225586
-0.4894901136875003	-0.35047339977057657
-0.4894290785312503	-0.34747264089833774
-0.4893680433750003	-0.3444656484492505
-0.4893070082187503	-0.341452476526765
-0.4892459730625003	-0.3384331791483021
-0.4891849379062503	-0.33540780968019723
-0.4891239027500003	-0.3323764204714989
-0.4890628675937503	-0.3293390628369619
-0.4890018324375003	-0.32629578721446884
-0.4889407972812503	-0.3232466431489998
-0.4888797621250003	-0.32019167900037787
-0.4888187269687503	-0.3171309418633106
-0.4887576918125003	-0.3140644778458753
-0.4886966566562503	-0.3109923323799593
-0.4886356215000003	-0.3079145505163962
-0.4885745863437503	-0.3048311772948406
-0.4885135511875003	-0.30174225815632105
-0.4884525160312503	-0.298647839094941
-0.4883914808750003	-0.29554796649268616
-0.4883304457187503	-0.2924426872399596
-0.4882694105625003	-0.2893320492949661
-0.4882083754062503	-0.2862161021270536
-0.4881473402500003	-0.2830948969262141
-0.4880863050937503	-0.27996848687684517
-0.4880252699375003	-0.2768369274277603
-0.4879642347812503	-0.27370027625581844
-0.4879031996250003	-0.27055859286741235
-0.4878421644687503	-0.2674119381061703
-0.4877811293125003	-0.2642603738092543
-0.4877200941562503	-0.26110396249560036
-0.4876590590000003	-0.2579427670889794
-0.4875980238437503	-0.25477685080827545
-0.4875369886875003	-0.2516062768139203
-0.4874759535312503	-0.24843110747057945
-0.4874149183750003	-0.24525140375895374
-0.4873538832187503	-0.24206722490578708
-0.4872928480625003	-0.2388786280836563
-0.4872318129062503	-0.23568566831242577
-0.4871707777500003	-0.23248839831761187
-0.4871097425937503	-0.2292868680304967
-0.4870487074375003	-0.22608112402974145
-0.4869876722812503	-0.2228712093461371
-0.4869266371250003	-0.2196571637360329
-0.4868656019687503	-0.21643902424230485
-0.4868045668125003	-0.2132168255906625
-0.4867435316562503	-0.20999060037247352
-0.4866824965000003	-0.20676037940389771
-0.4866214613437503	-0.2035261923431728
-0.4865604261875003	-0.20028806847711564
-0.4864993910312503	-0.1970460374431571
-0.4864383558750003	-0.1938001297858812
-0.4863773207187503	-0.19055037769460165
-0.4863162855625003	-0.18729681590742497
-0.4862552504062503	-0.18403948239541698
-0.4861942152500003	-0.18077841893312432
-0.4861331800937503	-0.17751367177629762
-0.4860721449375003	-0.17424529203810435
-0.4860111097812503	-0.17097333566423695
-0.4859500746250003	-0.16769786343373277
-0.4858890394687503	-0.16441894095472237
-0.4858280043125003	-0.16113663871306322
-0.4857669691562503	-0.15785103209024207
-0.4857059340000003	-0.15456220074932864
-0.4856448988437503	-0.15127022766821951
-0.4855838636875003	-0.14797519841606535
-0.4855228285312503	-0.1446772005320202
-0.4854617933750003	-0.14137632283363902
-0.4854007582187503	-0.13807265444835268
-0.4853397230625003	-0.13476628355754217
-0.4852786879062503	-0.13145729629882819
-0.4852176527500003	-0.12814577596131477
-0.4851566175937503	-0.12483180221627513
-0.4850955824375003	-0.12151545013493421
-0.4850345472812503	-0.11819678915429488
-0.4849735121250003	-0.11487588234562982
-0.4849124769687503	-0.11155278594574668
-0.4848514418125003	-0.1082275491047948
-0.4847904066562503	-0.10490021374974927
-0.4847293715000003	-0.10157081445389589
-0.4846683363437503	-0.09823937877193778
-0.4846073011875003	-0.09490592801347804
-0.4845462660312503	-0.09157047789609307
-0.4844852308750003	-0.08823303920485345
-0.4844241957187503	-0.0848936185995986
-0.4843631605625003	-0.08155221956365136
-0.4843021254062503	-0.07820884364965147
-0.4842410902500003	-0.0748634917792322
-0.4841800550937503	-0.07151616557127102
-0.4841190199375003	-0.06816686899796498
-0.4840579847812503	-0.06481560995689553
-0.4839969496250003	-0.06146240136830511
-0.4839359144687503	-0.0581072623036664
-0.4838748793125003	-0.05475021934684749
-0.4838138441562503	-0.05139130765334617
-0.4837528090000003	-0.04803057164861011
-0.4836917738437503	-0.04466806568008077
-0.4836307386875003	-0.041303854386365836
-0.4835697035312503	-0.037938012500171696
-0.4835086683750003	-0.0345706243404716
-0.4834476332187503	-0.031201783278417987
-0.4833865980625003	-0.027831591078090575
-0.4833255629062503	-0.024460156846862032
-0.4832645277500003	-0.0210875957372396
-0.4832034925937503	-0.017714027646960152
-0.4831424574375003	-0.014339575520277927
-0.4830814222812503	-0.01096436326244755
-0.4830203871250003	-0.007588513980718026
-0.4829593519687503	-0.0042121484483631025
-0.4828983168125003	-0.0008353833648257865
-0.4828372816562503	0.002541670492715628
-0.4827762465000003	0.005918910041558521
-0.4827152113437503	0.009296241354617887
-0.4826541761875003	0.012673580828576246
-0.4825931410312503	0.016050856094267672
-0.4825321058750003	0.019428006530768135
-0.4824710707187503	0.022804983595798703
-0.4824100355625003	0.02618175090650999
-0.4823490004062503	0.02955828378319641
-0.4822879652500003	0.03293456855249596
-0.4822269300937503	0.036310601637420094
-0.4821658949375003	0.039686388052252886
-0.4821048597812503	0.04306193964447648
-0.4820438246250003	0.04643727355772078
-0.4819827894687503	0.049812410505346905
-0.4819217543125003	0.0531873723966634
-0.4818607191562503	0.056562179874452764
-0.4817996840000003	0.05993685049916407
-0.4817386488437503	0.06331139710856193
-0.4816776136875003	0.06668582563386882
-0.4816165785312503	0.07006013289382058
-0.4815555433750003	0.073434304987139
-0.4814945082187503	0.0768083160418015
-0.4814334730625003	0.0801821272753807
-0.4813724379062503	0.08355568653421531
-0.4813114027500003	0.08692892813843278
-0.4812503675937503	0.09030177296781225
-0.4811893324375003	0.09367412892149689
-0.4811282972812503	0.0970458917917774
-0.4810672621250003	0.1004169465958732
-0.4810062269687503	0.10378716934056119
-0.4809451918125003	0.10715642880871015
-0.4808841566562503	0.1105245883087165
-0.4808231215000003	0.11389150788270251
-0.4807620863437503	0.11725704679043392
-0.4807010511875003	0.12062106596360639
-0.4806400160312503	0.12398343068367564
-0.4805789808750003	0.127344013218362
-0.4805179457187503	0.13070269496299852
-0.4804569105625003	0.13405936833370985
-0.4803958754062503	0.137413938639783
-0.4803348402500003	0.14076632554945065
-0.4802738050937503	0.14411646382560547
-0.4802127699375003	0.1474643036456469
-0.4801517347812503	0.15080981087442025
-0.4800906996250003	0.15415296709223292
-0.4800296644687503	0.1574937690903114
-0.4799686293125003	0.1608322279001405
-0.4799075941562503	0.16416836728104603
-0.4798465590000003	0.16750222161274667
-0.4797855238437503	0.17083383366928284
-0.4797244886875003	0.17416325235185037
-0.4796634535312503	0.1774905299445204
-0.4796024183750003	0.18081571907613533
-0.4795413832187503	0.18413886976591531
-0.4794803480625003	0.18746002638473314
-0.4794193129062503	0.1907792245765417
-0.4793582777500003	0.19409648863111972
-0.4792972425937503	0.1974118293132339
-0.4792362074375003	0.20072524183813925
-0.4791751722812503	0.2040367040416759
-0.4791141371250003	0.20734617493079002
-0.4790531019687503	0.21065359377083018
-0.4789920668125003	0.21395887984349238
-0.4789310316562503	0.21726193291291063
-0.4788699965000003	0.22056263409216584
-0.4788089613437503	0.22386084678615215
-0.4787479261875003	0.22715641806973555
-0.4786868910312503	0.2304491807612167
-0.4786258558750003	0.23373895579035694
-0.4785648207187503	0.2370255548093261
-0.4785037855625003	0.24030878335806405
-0.4784427504062503	0.24358844431439378
-0.4783817152500003	0.24686434124332696
-0.4783206800937503	0.2501362817119156
-0.4782596449375003	0.25340408067549325
-0.4781986097812503	0.2566675640103758
-0.4781375746250003	0.259926571924515
-0.4780765394687503	0.2631809618077456
-0.4780155043125003	0.26643061062467666
-0.4779544691562503	0.2696754169393643
-0.4778934340000003	0.27291530245927603
-0.4778323988437503	0.2761502132377902
-0.4777713636875003	0.2793801204941971
-0.4777103285312503	0.28260502055858583
-0.4776492933750003	0.2858249337162256
-0.4775882582187503	0.2890399025436107
-0.4775272230625003	0.292249990205343
-0.4774661879062503	0.2954552782620655
-0.4774051527500003	0.29865586367395286
-0.4773441175937503	0.3018518552838135
-0.4772830824375003	0.30504336996267967
-0.4772220472812503	0.30823052859188355
-0.4771610121250003	0.31141345207157917
-0.4770999769687503	0.31459225720444645
-0.4770389418125003	0.31776705239027486
-0.4769779066562503	0.32093793347165733
-0.4769168715000003	0.3241049799495753
-0.4768558363437503	0.32726825151193367
-0.4767948011875003	0.3304277848662896
-0.4767337660312503	0.3335835910885631
-0.4766727308750003	0.3367356537670809
-0.4766116957187503	0.3398839278523113
-0.4765506605625003	0.3430283390662826
-0.4764896254062503	0.34616878402231877
-0.4764285902500003	0.34930513105326494
-0.4763675550937503	0.35243722161800906
-0.4763065199375003	0.35556487238725776
-0.4762454847812503	0.35868787817973247
-0.4761844496250003	0.3618060154945958
-0.4761234144687503	0.3649190462394807
-0.4760623793125003	0.36802672182988194
-0.4760013441562503	0.3711287877903911
-0.4759403090000003	0.3742249885132061
-0.4758792738437503	0.37731507202347986
-0.4758182386875003	0.38039879472577104
-0.4757572035312503	0.3834759259409577
-0.4756961683750003	0.3865462522433458
-0.4756351332187503	0.3896095817098269
-0.4755740980625003	0.3926657476454244
-0.4755130629062503	0.3957146113035422
-0.4754520277500003	0.3987560639090214
-0.4753909925937503	0.40179002838275424
-0.4753299574375003	0.4048164604199167
-0.4752689222812503	0.4078353484249734
-0.4752078871250003	0.4108467125687728
-0.4751468519687503	0.41385060338233065
-0.4750858168125003	0.4168470996143017
-0.4750247816562503	0.4198363051988138
-0.4749637465000003	0.4228183455838601
-0.4749027113437503	0.4257933634778622
-0.4748416761875003	0.4287615143150845
-0.4747806410312503	0.43172296168216484
-0.4747196058750003	0.43467787229032057
-0.4746585707187503	0.43762641047335843
-0.4745975355625003	0.44056873287680703
-0.4745365004062503	0.4435049836571503
-0.4744754652500003	0.4464352899010633
-0.4744144300937503	0.44935975723519217
-0.4743533949375003	0.45227846610928696
-0.4742923597812503	0.4551914688610799
-0.4742313246250003	0.4580987873909651
-0.4741702894687503	0.4610004115137515
-0.4741092543125003	0.4638962981842878
-0.4740482191562503	0.46678637173472104
-0.4739871840000003	0.46967052488030375
-0.4739261488437503	0.4725486202427178
-0.4738651136875003	0.47542049258349844
-0.4738040785312503	0.47828595191091655
-0.4737430433750003	0.48114478734102395
-0.4736820082187503	0.48399677149052667
-0.4736209730625003	0.4868416651740298
-0.4735599379062503	0.48967922225699495
-0.4734989027500003	0.49250919455962755
-0.4734378675937503	0.49533133686059927
-0.4733768324375003	0.49814541203361
-0.4733157972812503	0.5009511958436822
-0.4732547621250003	0.5037484810225202
-0.4731937269687503	0.5065370807642471
-0.4731326918125003	0.509316831572934
-0.4730716566562503	0.5120875951577359
-0.4730106215000003	0.5148492591895402
-0.4729495863437503	0.5176017366981795
-0.4728885511875003	0.5203449635570527
-0.4728275160312503	0.5230788927275257
-0.4727664808750003	0.5258034853036826
-0.4727054457187503	0.528518702792467
-0.4726444105625003	0.5312245049284108
-0.4725833754062503	0.5339208515220684
-0.4725223402500003	0.5366077051856231
-0.4724613050937503	0.5392850342783203
-0.4724002699375003	0.5419528158895899
-0.4723392347812503	0.5446110384186762
-0.4722781996250003	0.5472597037485117
-0.4722171644687503	0.5498988290592381
-0.4721561293125003	0.5525284480658198
-0.4720950941562503	0.5551486114085223
-0.4720340590000003	0.5577593862306057
-0.4719730238437503	0.5603608551630471
-0.4719119886875003	0.5629531147335368
-0.4718509535312503	0.5655362731028362
-0.4717899183750003	0.5681104473674368
-0.4717288832187503	0.5706757606350472
-0.4716678480625003	0.5732323385796292
-0.4716068129062503	0.5757803055257557
-0.4715457777500003	0.5783197805797863
-0.4714847425937503	0.580850873899445
-0.4714237074375003	0.5833736830049044
-0.4713626722812503	0.5858882893130032
-0.4713016371250003	0.5883947549805162
-0.4712406019687503	0.5908931200401437
-0.4711795668125003	0.5933834000597666
-0.4711185316562503	0.5958655844484686
-0.4710574965000003	0.5983396353021058
-0.4709964613437503	0.600805486907858
-0.4709354261875003	0.6032630460079973
-0.4708743910312503	0.6057121926782251
-0.4708133558750003	0.6081527817847542
-0.4707523207187503	0.6105846450186017
-0.4706912855625003	0.613007593423314
-0.4706302504062503	0.6154214204478692
-0.4705692152500003	0.6178259055504983
-0.4705081800937503	0.6202208182092283
-0.4704471449375003	0.6226059221507667
-0.4703861097812503	0.6249809796384052
-0.4703250746250003	0.6273457557140978
-0.4702640394687503	0.6297000223086288
-0.4702030043125003	0.6320435621254153
-0.4701419691562503	0.6343761723428117
-0.4700809340000003	0.636697668159494
-0.4700198988437503	0.6390078859361841
-0.4699588636875003	0.6413066857165327
-0.4698978285312503	0.6435939531462878
-0.4698367933750003	0.6458696007574282
-0.4697757582187503	0.6481335685153028
-0.4697147230625003	0.6503858237345285
-0.4696536879062503	0.6526263605176167
-0.4695926527500003	0.6548551986333488
