Time	Frequency
-0.5000487943437504	0.7511734241328004
-0.4999877591875004	0.7519860482599201
-0.4999267240312504	0.7527883263125307
-0.4998656888750004	0.7535802319201302
-0.4998046537187504	0.754361742143888
-0.4997436185625004	0.7551328373956155
-0.4996825834062504	0.7558935012941788
-0.4996215482500004	0.7566437204727772
-0.4995605130937504	0.7573834843727708
-0.4994994779375004	0.7581127850244821
-0.4994384427812504	0.7588316167907637
-0.4993774076250004	0.7595399760886871
-0.4993163724687504	0.7602378611194369
-0.4992553373125004	0.7609252716082048
-0.4991943021562504	0.7616022085345726
-0.4991332670000004	0.7622686738453568
-0.4990722318437504	0.7629246701750138
-0.4990111966875004	0.7635702005834347
-0.4989501615312504	0.7642052683131823
-0.4988891263750004	0.7648298765984439
-0.4988280912187504	0.7654440285238835
-0.4987670560625004	0.7660477268953524
-0.4987060209062504	0.7666409741210397
-0.4986449857500004	0.7672237721227095
-0.4985839505937504	0.7677961222611142
-0.4985229154375004	0.7683580252639118
-0.4984618802812504	0.7689094811975629
-0.4984008451250004	0.7694504894885197
-0.4983398099687504	0.7699810489507861
-0.4982787748125004	0.7705011578219271
-0.4982177396562504	0.771010813800114
-0.4981567045000004	0.7715100140550182
-0.4980956693437504	0.7719987552458527
-0.4980346341875004	0.7724770335623988
-0.4979735990312504	0.7729448447488135
-0.4979125638750004	0.7734021840926363
-0.4978515287187504	0.7738490463940323
-0.4977904935625004	0.7742854259363026
-0.4977294584062504	0.7747113164546692
-0.4976684232500004	0.7751267111051044
-0.4976073880937504	0.7755316024553213
-0.4975463529375004	0.7759259824618437
-0.4974853177812504	0.7763098423823765
-0.4974242826250004	0.7766831726538804
-0.4973632474687504	0.7770459628018538
-0.4973022123125004	0.7773982014052447
-0.4972411771562504	0.7777398761060348
-0.4971801420000004	0.7780709736299994
-0.4971191068437504	0.7783914797478324
-0.4970580716875004	0.7787013791848919
-0.4969970365312504	0.7790006555871155
-0.4969360013750004	0.7792892915569741
-0.4968749662187504	0.7795672687068841
-0.4968139310625004	0.7798345677324412
-0.4967528959062504	0.7800911685141648
-0.4966918607500004	0.7803370502481047
-0.4966308255937504	0.7805721916363768
-0.4965697904375004	0.7807965711609444
-0.4965087552812504	0.7810101674147093
-0.4964477201250004	0.7812129594343391
-0.4963866849687504	0.7814049269931401
-0.4963256498125004	0.7815860508819383
-0.4962646146562504	0.7817563132292675
-0.4962035795000004	0.7819156978544801
-0.4961425443437504	0.7820641906138022
-0.4960815091875004	0.782201779705851
-0.4960204740312504	0.7823284559532858
-0.4959594388750004	0.7824442130709636
-0.4958984037187504	0.7825490478378935
-0.4958373685625004	0.7826429601711168
-0.4957763334062504	0.7827259531995346
-0.4957152982500004	0.7827980332764897
-0.4956542630937504	0.7828592098453608
-0.4955932279375004	0.7829094952675659
-0.4955321927812504	0.7829489046665717
-0.4954711576250004	0.7829774556459759
-0.4954101224687504	0.7829951678331277
-0.4953490873125004	0.7830020623771017
-0.4952880521562504	0.7829981614568894
-0.4952270170000004	0.7829834877394518
-0.4951659818437504	0.7829580637625977
-0.4951049466875004	0.7829219112884225
-0.4950439115312504	0.7828750506495942
-0.4949828763750004	0.7828175000821641
-0.4949218412187504	0.7827492751401266
-0.4948608060625004	0.7826703882308768
-0.4947997709062504	0.7825808481379444
-0.4947387357500004	0.7824806595814072
-0.4946777005937504	0.7823698229724643
-0.4946166654375004	0.7822483342601468
-0.4945556302812504	0.7821161847723493
-0.4944945951250004	0.781973361166226
-0.4944335599687504	0.7818198455639302
-0.4943725248125004	0.781655615805561
-0.4943114896562504	0.7814806457589233
-0.4942504545000004	0.7812949057671162
-0.4941894193437504	0.7810983633032156
-0.4941283841875004	0.7808909836858299
-0.4940673490312504	0.7806727307628696
-0.4940063138750004	0.7804435676579478
-0.4939452787187504	0.7802034575814849
-0.4938842435625004	0.7799523646456898
-0.4938232084062504	0.7796902546745335
-0.4937621732500004	0.7794170960091532
-0.4937011380937504	0.7791328603255451
-0.4936401029375004	0.7788375234226868
-0.4935790677812504	0.7785310659156562
-0.4935180326250004	0.7782134738549704
-0.4934569974687504	0.7778847392156449
-0.4933959623125004	0.7775448601453541
-0.4933349271562504	0.7771938410705393
-0.4932738920000004	0.7768316927509492
-0.4932128568437504	0.7764584321863599
-0.4931518216875004	0.7760740823943404
-0.4930907865312504	0.775678672127981
-0.4930297513750004	0.7752722354191489
-0.4929687162187504	0.7748548109268202
-0.4929076810625004	0.7744264412499328
-0.4928466459062504	0.7739871721746205
-0.4927856107500004	0.7735370517501232
-0.4927245755937504	0.7730761293008889
-0.4926635404375004	0.772604454475026
-0.4926025052812504	0.7721220763035556
-0.4925414701250004	0.7716290422479029
-0.4924804349687504	0.7711253972428781
-0.4924193998125004	0.7706111827857038
-0.4923583646562504	0.7700864360863217
-0.4922973295000004	0.769551189219334
-0.4922362943437504	0.7690054683945221
-0.4921752591875004	0.7684492935042284
-0.4921142240312504	0.7678826778518781
-0.4920531888750004	0.7673056279478768
-0.4919921537187504	0.7667181433789211
-0.4919311185625004	0.7661202168546807
-0.4918700834062504	0.76551183445898
-0.4918090482500004	0.7648929759376936
-0.4917480130937504	0.7642636150864893
-0.4916869779375004	0.7636237204255287
-0.4916259427812504	0.7629732559791564
-0.4915649076250004	0.7623121819934207
-0.4915038724687504	0.7616404557500634
-0.4914428373125004	0.7609580325352893
-0.4913818021562504	0.7602648666473009
-0.4913207670000004	0.759560912467331
-0.4912597318437504	0.7588461255912005
-0.4911986966875004	0.7581204638625778
-0.4911376615312504	0.7573838883716293
-0.4910766263750004	0.7566363645295251
-0.4910155912187504	0.7558778630008215
-0.4909545560625004	0.7551083603410205
-0.4908935209062504	0.7543278395285629
-0.4908324857500004	0.7535362905905802
-0.4907714505937504	0.752733711191552
-0.4907104154375004	0.7519201069230305
-0.4906493802812504	0.7510954912910178
-0.4905883451250004	0.7502598855647646
-0.4905273099687504	0.7494133185597772
-0.4904662748125004	0.7485558263003855
-0.4904052396562504	0.7476874515099471
-0.4903442045000004	0.7468082429255418
-0.4902831693437504	0.7459182544540948
-0.4902221341875004	0.7450175442509784
-0.4901610990312504	0.7441061738034757
-0.4901000638750004	0.7431842069454747
-0.4900390287187504	0.7422517086194739
-0.4899779935625004	0.7413087434826978
-0.4899169584062504	0.7403553746730934
-0.4898559232500004	0.7393916627640091
-0.4897948880937504	0.7384176647437634
-0.4897338529375004	0.7374334329011264
-0.4896728177812504	0.7364390136743724
-0.4896117826250004	0.7354344467134162
-0.4895507474687504	0.7344197641895277
-0.4894897123125004	0.7333949902715775
-0.4894286771562504	0.7323601408511734
-0.4893676420000004	0.7313152234635328
-0.4893066068437504	0.73026023728671
-0.4892455716875004	0.7291951732132688
-0.4891845365312504	0.728120013988526
-0.4891235013750004	0.727034734552631
-0.4890624662187504	0.7259393027425596
-0.4890014310625004	0.7248336802995047
-0.4889403959062504	0.7237178240530274
-0.4888793607500004	0.7225916871574196
-0.4888183255937504	0.7214552203114356
-0.4887572904375004	0.72030837296515
-0.4886962552812504	0.7191510945323815
-0.4886352201250004	0.7179833356994886
-0.4885741849687504	0.7168050498895039
-0.4885131498125004	0.7156161947362892
-0.4884521146562504	0.7144167334064103
-0.4883910795000004	0.7132066357138606
-0.4883300443437504	0.7119858790506426
-0.4882690091875004	0.7107544492565695
-0.4882079740312504	0.709512341456723
-0.4881469388750004	0.7082595607687064
-0.4880859037187504	0.7069961227886986
-0.4880248685625004	0.7057220537876874
-0.4879638334062504	0.7044373906759571
-0.4879027982500004	0.7031421808528827
-0.4878417630937504	0.7018364819144706
-0.4877807279375004	0.7005203610471633
-0.4877196927812504	0.6991938941336912
-0.4876586576250004	0.6978571647486107
-0.4875976224687504	0.6965102630226873
-0.4875365873125004	0.6951532843938362
-0.4874755521562504	0.6937863282499325
-0.4874145170000004	0.6924094964139259
-0.4873534818437504	0.6910228915144884
-0.4872924466875004	0.6896266153149588
-0.4872314115312504	0.6882207671685753
-0.4871703763750004	0.6868054424842214
-0.4871093412187504	0.6853807310147536
-0.4870483060625004	0.6839467151628109
-0.4869872709062504	0.682503468432086
-0.4869262357500004	0.6810510540882285
-0.4868652005937504	0.6795895240833397
-0.4868041654375004	0.6781189180842345
-0.4867431302812504	0.6766392625778195
-0.4866820951250004	0.675150570219056
-0.4866210599687504	0.6736528394359784
-0.4865600248125004	0.6721460543372767
-0.4864989896562504	0.670630185038063
-0.4864379545000004	0.6691051882092279
-0.4863769193437504	0.6675710077324752
-0.4863158841875004	0.6660275756289881
-0.4862548490312504	0.6644748132926988
-0.4861938138750004	0.6629126330292209
-0.4861327787187504	0.6613409398325683
-0.4860717435625004	0.6597596332825357
-0.4860107084062504	0.658168609621583
-0.4859496732500004	0.6565677640111827
-0.4858886380937504	0.654956992919701
-0.4858276029375004	0.6533361965870226
-0.4857665677812504	0.6517052814037418
-0.4857055326250004	0.6500641621272395
-0.4856444974687504	0.6484127640082555
-0.4855834623125004	0.6467510249109288
-0.4855224271562504	0.6450788974864826
-0.4854613920000004	0.6433963512064824
-0.4854003568437504	0.6417033738348664
-0.4853393216875004	0.6399999724520166
-0.4852782865312504	0.6382861742870302
-0.4852172513750004	0.63656202714507
-0.4851562162187504	0.6348275995626687
-0.4850951810625004	0.6330829808201932
-0.4850341459062504	0.6313282803357281
-0.4849731107500004	0.6295636263377239
-0.4849120755937504	0.6277891643350961
-0.4848510404375004	0.6260050557002375
-0.4847900052812504	0.624211476006205
-0.4847289701250004	0.6224086125787267
-0.4846679349687504	0.6205966614287862
-0.4846068998125004	0.618775824228191
-0.4845458646562504	0.6169463054506815
-0.4844848295000004	0.6151083093043366
-0.4844237943437504	0.6132620364766832
-0.4843627591875004	0.6114076808818526
-0.4843017240312504	0.6095454263711484
-0.4842406888750004	0.6076754434538011
-0.4841796537187504	0.6057978861728888
-0.4841186185625004	0.6039128893773978
-0.4840575834062504	0.6020205663958346
-0.4839965482500004	0.6001210069000982
-0.4839355130937504	0.5982142751710263
-0.4838744779375004	0.5963004089167309
-0.4838134427812504	0.594379418458913
-0.4837524076250004	0.5924512863154174
-0.4836913724687504	0.5905159673177421
-0.4836303373125004	0.5885733893131353
-0.4835693021562504	0.5866234543712034
-0.4835082670000004	0.5846660403981108
-0.4834472318437504	0.5827010032595159
-0.4833861966875004	0.5807281793566462
-0.4833251615312504	0.5787473885798988
-0.4832641263750004	0.576758437806272
-0.4832030912187504	0.5747611247607647
-0.4831420560625004	0.5727552419239696
-0.4830810209062504	0.5707405804601168
-0.4830199857500004	0.5687169341198718
-0.4829589505937504	0.5666841031901355
-0.4828979154375004	0.5646418986072499
-0.4828368802812504	0.5625901459768672
-0.4827758451250004	0.5605286893699015
-0.4827148099687504	0.5584573949451818
-0.4826537748125004	0.556376154104913
-0.4825927396562504	0.5542848860779902
-0.4825317045000004	0.5521835400877417
-0.4824706693437504	0.5500720970829698
-0.4824096341875004	0.5479505711268784
-0.4823485990312504	0.545819010296873
-0.4822875638750004	0.5436774966762534
-0.4822265287187504	0.5415261456582816
-0.4821654935625004	0.5393651049229197
-0.4821044584062504	0.5371945529500344
-0.4820434232500004	0.5350146969592854
-0.4819823880937504	0.5328257701370638
-0.4819213529375004	0.5306280281348755
-0.4818603177812504	0.5284217453578828
-0.4817992826250004	0.5262072111915229
-0.4817382474687504	0.5239847257405806
-0.4816772123125004	0.5217545951290873
-0.4816161771562504	0.5195171266121769
-0.4815551420000004	0.5172726235264531
-0.4814941068437504	0.5150213803938403
-0.4814330716875004	0.5127636783191133
-0.4813720365312504	0.5104997804368093
-0.4813110013750004	0.5082299274959974
-0.4812499662187504	0.5059543337741084
-0.4811889310625004	0.503673183386331
-0.4811278959062504	0.5013866271123819
-0.4810668607500004	0.4990947797388499
-0.4810058255937504	0.4967977180168162
-0.4809447904375004	0.49449547947187866
-0.4808837552812504	0.4921880619598599
-0.4808227201250004	0.48987542376688226
-0.4807616849687504	0.4875574843263292
-0.4807006498125004	0.48523412558526074
-0.4806396146562504	0.4829051940129544
-0.4805785795000004	0.4805705034329268
-0.4805175443437504	0.4782298386466514
-0.4804565091875004	0.47588295952403087
-0.4803954740312504	0.47352960550538786
-0.4803344388750004	0.47116950058269036
-0.4802734037187504	0.4688023585997694
-0.4802123685625004	0.4664278887809911
-0.4801513334062504	0.46404580149849795
-0.4800902982500004	0.46165581416215085
-0.4800292630937504	0.4592576568380763
-0.4799682279375004	0.45685107739444236
-0.4799071927812504	0.45443584671718495
-0.4798461576250004	0.45201176401651855
-0.4797851224687504	0.44957866145390685
-0.4797240873125004	0.44713640804919147
-0.4796630521562504	0.4446849130681853
-0.4796020170000004	0.4422241285673295
-0.4795409818437504	0.43975405109478993
-0.4794799466875004	0.43727472279615454
-0.4794189115312504	0.4347862317718155
-0.4793578763750004	0.4322887115735627
-0.4792968412187504	0.4297823398969715
-0.4792358060625004	0.4272673365647552
-0.4791747709062504	0.42474396081768034
-0.4791137357500004	0.42221250746275435
-0.4790527005937504	0.41967330205630954
-0.4789916654375004	0.4171266960312592
-0.4789306302812504	0.4145730615987894
-0.4788695951250004	0.41201278588599377
-0.4788085599687504	0.4094462645973127
-0.4787475248125004	0.40687389539022556
-0.4786864896562504	0.4042960711043559
-0.4786254545000004	0.4017131731425337
-0.4785644193437504	0.3991255649774334
-0.4785033841875004	0.39653358595275207
-0.4784423490312504	0.39393754562295635
-0.4783813138750004	0.3913377184675362
-0.4783202787187504	0.38873433896606624
-0.4782592435625004	0.3861275973859825
-0.4781982084062504	0.38351763657389976
-0.4781371732500004	0.380904549709405
-0.4780761380937504	0.37828837898214757
-0.4780151029375004	0.3756691153255072
-0.4779540677812504	0.37304669909210053
-0.4778930326250004	0.3704210214729434
-0.4778319974687504	0.3677919267603141
-0.4777709623125004	0.36515921552554526
-0.4777099271562504	0.3625226486617913
-0.4776488920000004	0.35988195227131986
-0.4775878568437504	0.3572368232082442
-0.4775268216875004	0.3545869351212701
-0.4774657865312504	0.3519319449389704
-0.4774047513750004	0.34927149962124826
-0.4773437162187504	0.3466052431638345
-0.4772826810625004	0.3439328238551443
-0.4772216459062504	0.34125390154004626
-0.4771606107500004	0.3385681547355476
-0.4770995755937504	0.33587528738198524
-0.4770385404375004	0.3331750350553079
-0.4769775052812504	0.3304671708067077
-0.4769164701250004	0.32775151041203743
-0.4768554349687504	0.3250279165694411
-0.4767943998125004	0.3222963021016561
-0.4767333646562504	0.3195566324291621
-0.4766723295000004	0.31680892709189395
-0.4766112943437504	0.31405325991372124
-0.4765502591875004	0.3112897581640143
-0.4764892240312504	0.30851860100940287
-0.4764281888750004	0.3057400168172862
-0.4763671537187504	0.3029542791410166
-0.4763061185625004	0.30016170174184975
-0.4762450834062504	0.2973626331324891
-0.4761840482500004	0.29455745074474915
-0.4761230130937504	0.29174655428225066
-0.4760619779375004	0.2889303581914019
-0.4760009427812504	0.28610928389765067
-0.4759399076250004	0.28328375213275575
-0.4758788724687504	0.2804541751724539
-0.4758178373125004	0.2776209492186672
-0.4757568021562504	0.2747844472722611
-0.4756957670000004	0.27194501241653896
-0.4756347318437504	0.2691029516203031
-0.4755736966875004	0.2662585304085958
-0.4755126615312504	0.2634119685257255
-0.4754516263750004	0.2605634367572059
-0.4753905912187504	0.2577130552307343
-0.4753295560625004	0.2548608941326436
-0.4752685209062504	0.25200697911403225
-0.4752074857500004	0.24915130148115225
-0.4751464505937504	0.246293828508805
-0.4750854154375004	0.2434345099525846
-0.4750243802812504	0.24057328094336045
-0.4749633451250004	0.23771006276438814
-0.4749023099687504	0.23484476280949232
-0.4748412748125004	0.2319772744662895
-0.4747802396562504	0.22910747698926906
-0.4747192045000004	0.22623523543871743
-0.4746581693437504	0.22336040090031076
-0.4745971341875004	0.2204828110261945
-0.4745360990312504	0.21760229085279567
-0.4744750638750004	0.21471865403338153
-0.4744140287187504	0.21183170464705375
-0.4743529935625004	0.20894123961995553
-0.4742919584062504	0.2060470516434814
-0.4742309232500004	0.20314893233440587
-0.4741698880937504	0.20024667559094256
-0.4741088529375004	0.19734008115548243
-0.4740478177812504	0.1944289582743475
-0.4739867826250004	0.19151312956076277
-0.4739257474687504	0.18859243503387121
-0.4738647123125004	0.18566673591903662
-0.4738036771562504	0.18273591797132674
-0.4737426420000004	0.17979989438893754
-0.4736816068437504	0.17685860845211931
-0.4736205716875004	0.17391203583180628
-0.4735595365312504	0.17096018624390438
-0.4734985013750004	0.16800310459240206
-0.4734374662187504	0.16504087184644173
-0.4733764310625004	0.1620736050513927
-0.4733153959062504	0.1591014562119032
-0.4732543607500004	0.1561246105408938
-0.4731933255937504	0.1531432841253431
-0.4731322904375004	0.15015772092513116
-0.4730712552812504	0.14716818938542361
-0.4730102201250004	0.14417497862756803
-0.4729491849687504	0.1411783939615616
-0.4728881498125004	0.13817875195148038
-0.4728271146562504	0.13517637529333387
-0.4727660795000004	0.13217158743309607
-0.4727050443437504	0.12916470710000938
-0.4726440091875004	0.12615604298792624
-0.4725829740312504	0.12314588848899997
-0.4725219388750004	0.12013451647601221
-0.4724609037187504	0.11712217444782187
-0.4723998685625004	0.114109080342716
-0.4723388334062504	0.11109541903840375
-0.4722777982500004	0.1080813394521939
-0.4722167630937504	0.10506695228276108
-0.4721557279375004	0.10205232840108758
-0.4720946927812504	0.09903749780812367
-0.4720336576250004	0.09602244940504613
-0.4719726224687504	0.09300713191513586
-0.4719115873125004	0.08999145568300784
-0.4718505521562504	0.08697529510742814
-0.4717895170000004	0.08395849186468861
-0.4717284818437504	0.08094085881966184
-0.4716674466875004	0.07792218457137816
-0.4716064115312504	0.07490223859542924
-0.4715453763750004	0.07188077661389734
-0.4714843412187504	0.06885754615875875
-0.4714233060625004	0.06583229257244635
-0.4713622709062504	0.06280476532203393
-0.4713012357500004	0.05977472421287017
-0.4712402005937504	0.05674194538561862
-0.4711791654375004	0.053706227250304196
-0.4711181302812504	0.05066739593199759
-0.4710570951250004	0.047625309856516626
-0.4709960599687504	0.044579863897244186
-0.4709350248125004	0.0415309930873404
-0.4708739896562504	0.038478675457264154
-0.4708129545000004	0.03542293394737949
-0.4707519193437504	0.03236383743531381
-0.4706908841875004	0.0293015008925856
-0.4706298490312504	0.026236084566873822
-0.4705688138750004	0.023167792031125185
-0.4705077787187504	0.020096867380466947
-0.4704467435625004	0.01702359189834172
-0.4703857084062504	0.0139482800166736
-0.4703246732500004	0.010871274413978805
-0.4702636380937504	0.007792940410761894
-0.4702026029375004	0.004713659791526198
-0.4701415677812504	0.00163382425512542
-0.4700805326250004	-0.0014461712790299888
-0.4700194974687504	-0.004525935549143724
-0.4699584623125004	-0.007605087837595156
-0.4698974271562504	-0.010683264584413339
-0.4698363920000004	-0.01376012587896094
-0.4697753568437504	-0.016835361624047196
-0.4697143216875004	-0.019908696911247144
-0.4696532865312504	-0.02297989682774917
-0.4695922513750004	-0.02604877077920937
-0.4695312162187504	-0.029115175845195348
-0.4694701810625004	-0.0321790189708437
-0.4694091459062504	-0.0352402582096081
-0.4693481107500004	-0.03829890311069857
-0.4692870755937504	-0.041355014017313334
-0.4692260404375004	-0.04440870024961195
-0.4691650052812504	-0.04746011750876824
-0.4691039701250004	-0.050509464553577424
-0.4690429349687504	-0.053556978899596624
