Time	Frequency
-0.5000177398124999	-0.7428999099331655
-0.49995670465624986	-0.7432893522521483
-0.49989566949999986	-0.7436686825929295
-0.49983463434374986	-0.7440378059089205
-0.49977359918749986	-0.7443966472801167
-0.49971256403124986	-0.7447451532306864
-0.49965152887499986	-0.7450832925909956
-0.49959049371874986	-0.7454110568980533
-0.49952945856249986	-0.745728460370588
-0.49946842340624986	-0.746035539467659
-0.49940738824999986	-0.7463323520569329
-0.49934635309374986	-0.7466189761838293
-0.49928531793749986	-0.74689550839235
-0.49922428278124986	-0.7471620616663515
-0.49916324762499986	-0.7474187630937641
-0.49910221246874986	-0.7476657512790921
-0.49904117731249986	-0.7479031735448725
-0.49898014215624986	-0.7481311829685333
-0.49891910699999986	-0.748349935299591
-0.49885807184374986	-0.7485595858287518
-0.49879703668749986	-0.748760286302227
-0.49873600153124986	-0.7489521819374108
-0.49867496637499986	-0.7491354085047075
-0.49861393121874986	-0.7493100895774515
-0.49855289606249986	-0.7494763341373717
-0.49849186090624986	-0.7496342344576569
-0.49843082574999986	-0.7497838641819995
-0.49836979059374986	-0.7499252767565684
-0.49830875543749986	-0.7500585042996928
-0.49824772028124986	-0.7501835569292614
-0.49818668512499986	-0.7503004226140538
-0.49812564996874986	-0.750409067475209
-0.49806461481249986	-0.7505094364488564
-0.49800357965624986	-0.7506014542936595
-0.49794254449999986	-0.7506850269106993
-0.49788150934374986	-0.7507600431059459
-0.49782047418749986	-0.7508263768707674
-0.49775943903124986	-0.7508838899250263
-0.49769840387499986	-0.7509324343297427
-0.49763736871874986	-0.7509718552723269
-0.49757633356249986	-0.7510019941113413
-0.49751529840624986	-0.7510226915137556
-0.49745426324999986	-0.7510337905413987
-0.49739322809374986	-0.7510351396852071
-0.49733219293749986	-0.7510265957657933
-0.49727115778124986	-0.7510080266619628
-0.49721012262499986	-0.750979313858825
-0.49714908746874986	-0.7509403547250738
-0.49708805231249986	-0.7508910644887276
-0.49702701715624986	-0.7508313778547069
-0.49696598199999986	-0.75076125016338
-0.49690494684374986	-0.7506806580785182
-0.49684391168749986	-0.7505895998651362
-0.49678287653124986	-0.7504880952875127
-0.49672184137499986	-0.750376185048188
-0.49666080621874986	-0.7502539297753048
-0.49659977106249986	-0.7501214086204276
-0.49653873590624986	-0.7499787173921966
-0.49647770074999986	-0.7498259663169241
-0.49641666559374986	-0.7496632776546922
-0.49635563043749986	-0.7494907831514049
-0.49629459528124986	-0.7493086212929043
-0.49623356012499986	-0.7491169344774619
-0.49617252496874986	-0.7489158660502795
-0.49611148981249986	-0.7487055572059461
-0.49605045465624986	-0.7484861441222129
-0.49598941949999986	-0.7482577554584344
-0.49592838434374986	-0.748020509947539
-0.49586734918749986	-0.7477745140770521
-0.49580631403124986	-0.7475198600965444
-0.49574527887499986	-0.7472566244191657
-0.49568424371874986	-0.7469848664085399
-0.49562320856249986	-0.7467046274866798
-0.49556217340624986	-0.7464159305681958
-0.49550113824999986	-0.7461187799971448
-0.49544010309374986	-0.7458131619650653
-0.49537906793749986	-0.7454990451978322
-0.49531803278124986	-0.7451763819230088
-0.49525699762499986	-0.7448451092493144
-0.49519596246874986	-0.7445051509169015
-0.49513492731249986	-0.7441564193299964
-0.49507389215624986	-0.7437988178076343
-0.49501285699999986	-0.7434322429471685
-0.49495182184374986	-0.7430565870253278
-0.49489078668749986	-0.7426717404641753
-0.49482975153124986	-0.742277594292809
-0.49476871637499986	-0.7418740423236355
-0.49470768121874986	-0.7414609830909612
-0.49464664606249986	-0.741038321902455
-0.49458561090624986	-0.7406059728646363
-0.49452457574999986	-0.7401638605042213
-0.49446354059374986	-0.7397119209929335
-0.49440250543749986	-0.7392501031359494
-0.49434147028124986	-0.738778369165884
-0.49428043512499986	-0.7382966952998042
-0.49421939996874986	-0.7378050719881034
-0.49415836481249986	-0.7373035038079923
-0.49409732965624986	-0.7367920090956882
-0.49403629449999986	-0.7362706194425529
-0.49397525934374986	-0.7357393789019211
-0.49391422418749986	-0.7351983427982367
-0.49385318903124986	-0.7346475763555965
-0.49379215387499986	-0.7340871532557509
-0.49373111871874986	-0.7335171540609342
-0.49367008356249986	-0.7329376644892438
-0.49360904840624986	-0.7323487734894523
-0.49354801324999986	-0.7317505710758552
-0.49348697809374986	-0.7311431462090855
-0.49342594293749986	-0.7305265850502722
-0.49336490778124986	-0.7299009692798528
-0.49330387262499986	-0.7292663740804799
-0.49324283746874986	-0.7286228661414667
-0.49318180231249986	-0.727970502156898
-0.49312076715624986	-0.7273093277048688
-0.49305973199999986	-0.7266393762786948
-0.49299869684374986	-0.7259606685522273
-0.49293766168749986	-0.7252732118729288
-0.49287662653124986	-0.7245769999364791
-0.49281559137499986	-0.7238720129511357
-0.49275455621874986	-0.7231582182771121
-0.49269352106249986	-0.722435571239901
-0.49263248590624986	-0.7217040162950685
-0.49257145074999986	-0.7209634886759902
-0.49251041559374986	-0.7202139162953902
-0.49244938043749986	-0.7194552217211668
-0.49238834528124986	-0.7186873242648808
-0.49232731012499986	-0.7179101423609454
-0.49226627496874986	-0.7171235961452506
-0.49220523981249986	-0.7163276098688294
-0.49214420465624986	-0.7155221140401615
-0.49208316949999986	-0.7147070474820859
-0.49202213434374986	-0.7138823594400644
-0.49196109918749986	-0.7130480116037445
-0.49190006403124986	-0.7122039797235173
-0.49183902887499986	-0.7113502547957579
-0.49177799371874986	-0.7104868439575973
-0.49171695856249986	-0.7096137709686928
-0.49165592340624986	-0.7087310761147853
-0.49159488824999986	-0.7078388155637655
-0.49153385309374986	-0.7069370603931682
-0.49147281793749986	-0.7060258954369864
-0.49141178278124986	-0.705105417755549
-0.49135074762499986	-0.7041757345297598
-0.49128971246874986	-0.7032369605177866
-0.49122867731249986	-0.7022892153287534
-0.49116764215624986	-0.7013326207155582
-0.49110660699999986	-0.7003672979155338
-0.49104557184374986	-0.6993933648184464
-0.49098453668749986	-0.6984109330262767
-0.49092350153124986	-0.6974201051908683
-0.49086246637499986	-0.6964209725874192
-0.49080143121874986	-0.6954136127119859
-0.49074039606249986	-0.6943980871455319
-0.49067936090624986	-0.6933744399505911
-0.49061832574999986	-0.6923426964613235
-0.49055729059374986	-0.6913028622950432
-0.49049625543749986	-0.6902549227883188
-0.49043522028124986	-0.6891988431542976
-0.49037418512499986	-0.6881345692322351
-0.49031314996874986	-0.6870620285291983
-0.49025211481249986	-0.6859811315889096
-0.49019107965624986	-0.684891773824424
-0.49013004449999986	-0.6837938378710663
-0.49006900934374986	-0.6826871963142371
-0.49000797418749986	-0.6815717144613298
-0.48994693903124986	-0.6804472532496747
-0.48988590387499986	-0.6793136724700386
-0.48982486871874986	-0.6781708341213952
-0.48976383356249986	-0.67701860568878
-0.48970279840624986	-0.675856863260344
-0.48964176324999986	-0.6746854946566717
-0.48958072809374986	-0.6735044026060698
-0.48951969293749986	-0.6723135076217208
-0.48945865778124986	-0.6711127502845637
-0.48939762262499986	-0.6699020929170711
-0.48933658746874986	-0.6686815210162498
-0.48927555231249986	-0.6674510444730911
-0.48921451715624986	-0.6662106980054958
-0.48915348199999986	-0.6649605408378272
-0.48909244684374986	-0.6637006560377213
-0.48903141168749986	-0.6624311494078345
-0.48897037653124986	-0.6611521477671403
-0.48890934137499986	-0.6598637966126092
-0.48884830621874986	-0.6585662573969246
-0.48878727106249986	-0.6572597046511705
-0.48872623590624986	-0.6559443227135209
-0.48866520074999986	-0.6546203020016805
-0.48860416559374986	-0.6532878350253813
-0.48854313043749986	-0.6519471122844933
-0.48848209528124986	-0.6505983183673979
-0.48842106012499986	-0.6492416282147444
-0.48836002496874986	-0.6478772033083298
-0.48829898981249986	-0.646505188220094
-0.48823795465624986	-0.6451257079085255
-0.48817691949999986	-0.6437388654101515
-0.48811588434374986	-0.6423447398173352
-0.48805484918749986	-0.6409433848419326
-0.48799381403124986	-0.6395348278917207
-0.48793277887499986	-0.6381190697257644
-0.48787174371874986	-0.6366960850176232
-0.48781070856249986	-0.6352658235738332
-0.48774967340624986	-0.6338282118201156
-0.48768863824999986	-0.6323831546985047
-0.48762760309374986	-0.6309305381633326
-0.48756656793749986	-0.6294702322126344
-0.48750553278124986	-0.6280020943601023
-0.48744449762499986	-0.6265259734205856
-0.48738346246874986	-0.6250417134425921
-0.48732242731249986	-0.6235491576230799
-0.48726139215624986	-0.6220481521118136
-0.48720035699999986	-0.6205385497861722
-0.48713932184374986	-0.6190202140342096
-0.48707828668749986	-0.6174930224120536
-0.48701725153124986	-0.61595686993475
-0.48695621637499986	-0.6144116717988279
-0.48689518121874986	-0.6128573655809573
-0.48683414606249986	-0.6112939129620255
-0.48677311090624986	-0.6097213010358511
-0.48671207574999986	-0.6081395432281148
-0.48665104059374986	-0.606548679562685
-0.48659000543749986	-0.6049487762462943
-0.48652897028124986	-0.6033399245680213
-0.48646793512499986	-0.6017222390537642
-0.48640689996874986	-0.6000958553265179
-0.48634586481249986	-0.5984609277370023
-0.48628482965624986	-0.596817626284504
-0.48622379449999986	-0.5951661328425075
-0.48616275934374986	-0.5935066371081226
-0.48610172418749986	-0.5918393325854325
-0.48604068903124986	-0.5901644127029639
-0.48597965387499986	-0.5884820669821599
-0.48591861871874986	-0.5867924770857059
-0.48585758356249986	-0.5850958128375093
-0.48579654840624986	-0.5833922285271396
-0.48573551324999986	-0.5816818595578737
-0.48567447809374986	-0.5799648195131248
-0.48561344293749986	-0.5782411979083036
-0.48555240778124986	-0.5765110585254706
-0.48549137262499986	-0.5747744380826144
-0.48543033746874986	-0.5730313454703765
-0.48536930231249986	-0.5712817617291901
-0.48530826715624986	-0.5695256405489142
-0.48524723199999986	-0.5677629094050135
-0.48518619684374986	-0.5659934714931507
-0.48512516168749986	-0.5642172082985875
-0.48506412653124986	-0.5624339827024579
-0.48500309137499986	-0.560643642344099
-0.48494205621874986	-0.5588460232421452
-0.48488102106249986	-0.5570409540872149
-0.48481998590624986	-0.5552282609107272
-0.48475895074999986	-0.5534077715521484
-0.48469791559374986	-0.5515793199880263
-0.48463688043749986	-0.5497427509737665
-0.48457584528124986	-0.5478979250156101
-0.48451481012499986	-0.5460447227752675
-0.48445377496874986	-0.5441830483270045
-0.48439273981249986	-0.5423128318837851
-0.48433170465624986	-0.5404340324435949
-0.48427066949999986	-0.5385466400343145
-0.48420963434374986	-0.5366506773416614
-0.48414859918749986	-0.5347462006371038
-0.48408756403124986	-0.5328332997460036
-0.48402652887499986	-0.5309120970339015
-0.48396549371874986	-0.5289827456465099
-0.48390445856249986	-0.5270454271112089
-0.48384342340624986	-0.5251003484021881
-0.48378238824999986	-0.5231477386382369
-0.48372135309374986	-0.5211878453447071
-0.48366031793749986	-0.5192209299151026
-0.48359928278124986	-0.5172472622202167
-0.48353824762499986	-0.5152671148488742
-0.48347721246874986	-0.5132807573432165
-0.48341617731249986	-0.5112884505722061
-0.48335514215624986	-0.5092904413225297
-0.48329410699999986	-0.5072869569740945
-0.48323307184374986	-0.5052782002370731
-0.48317203668749986	-0.5032643443172008
-0.48311100153124986	-0.5012455286731057
-0.48304996637499986	-0.49922185520339524
-0.48298893121874986	-0.4971933853187214
-0.48292789606249986	-0.4951601384657364
-0.48286686090624986	-0.49312209171769816
-0.48280582574999986	-0.49107917996696465
-0.48274479059374986	-0.48903129683244817
-0.48268375543749986	-0.48697829640540624
-0.48262272028124986	-0.48491999588143747
-0.48256168512499986	-0.482856179357203
-0.48250064996874986	-0.48078660278401936
-0.48243961481249986	-0.47871099933720834
-0.48237857965624986	-0.47662908483896255
-0.48231754449999986	-0.4745405636917293
-0.48225650934374986	-0.4724451355540586
-0.48219547418749986	-0.4703425023950855
-0.48213443903124986	-0.4682323754083824
-0.48207340387499986	-0.4661144818100764
-0.48201236871874986	-0.4639885718459922
-0.48195133356249986	-0.46185442566678847
-0.48189029840624986	-0.4597118592822697
-0.48182926324999986	-0.4575607295278296
-0.48176822809374986	-0.45540093847914265
-0.48170719293749986	-0.45323243687493425
-0.48164615778124986	-0.4510552261017047
-0.48158512262499986	-0.44886935927094174
-0.48152408746874986	-0.4466749414317723
-0.48146305231249986	-0.4444721284438133
-0.48140201715624986	-0.4422611248190428
-0.48134098199999986	-0.44004218078894064
-0.48127994684374986	-0.4378155882530479
-0.48121891168749986	-0.43558167581393464
-0.48115787653124986	-0.4333408032139726
-0.48109684137499986	-0.4310933548396598
-0.48103580621874986	-0.42883973230317246
-0.48097477106249986	-0.42658034683507623
-0.48091373590624986	-0.42431561176088384
-0.48085270074999986	-0.42204593442359795
-0.48079166559374986	-0.41977170752362086
-0.48073063043749986	-0.4174933008591937
-0.48066959528124986	-0.41521105388719326
-0.48060856012499986	-0.412925268926493
-0.48054752496874986	-0.41063620516220745
-0.48048648981249986	-0.4083440736876058
-0.48042545465624986	-0.40604903365822415
-0.48036441949999986	-0.4037511894785164
-0.48030338434374986	-0.40145058881959506
-0.48024234918749986	-0.3991472215761004
-0.48018131403124986	-0.3968410198910986
-0.48012027887499986	-0.39453185913133487
-0.48005924371874986	-0.39221956019305
-0.47999820856249986	-0.38990389350853916
-0.47993717340624986	-0.3875845842585467
-0.47987613824999986	-0.385261318482967
-0.47981510309374986	-0.38293375015553394
-0.47975406793749986	-0.3806015089094762
-0.47969303278124986	-0.3782642083772598
-0.47963199762499986	-0.3759214553159085
-0.47957096246874986	-0.37357285896425535
-0.47950992731249986	-0.3712180398921529
-0.47944889215624986	-0.36885663831790805
-0.47938785699999986	-0.36648832230256145
-0.47932682184374986	-0.36411279588641887
-0.47926578668749986	-0.3617298065641307
-0.47920475153124986	-0.35933915154873447
-0.47914371637499986	-0.3569406830797368
-0.47908268121874986	-0.3545343128272865
-0.47902164606249986	-0.3521200148198471
-0.47896061090624986	-0.3496978267516501
-0.47889957574999986	-0.3472678498073429
-0.47883854059374986	-0.3448302469787701
-0.47877750543749986	-0.3423852397880893
-0.47871647028124986	-0.3399331035587472
-0.47865543512499986	-0.3374741616436632
-0.47859439996874986	-0.33500877864199186
-0.47853336481249986	-0.33253735252953676
-0.47847232965624986	-0.330060305931091
-0.47841129449999986	-0.32757807668795363
-0.47835025934374986	-0.32509110765897337
-0.47828922418749986	-0.32259983579592955
-0.47822818903124986	-0.32010468118881175
-0.47816715387499986	-0.31760603664082787
-0.47810611871874986	-0.31510425764919825
-0.47804508356249986	-0.3125996531051845
-0.47798404840624986	-0.31009247712413657
-0.47792301324999986	-0.3075829219412972
-0.47786197809374986	-0.3050711121453209
-0.47780094293749986	-0.3025571005726793
-0.47773990778124986	-0.3000408651658996
-0.47767887262499986	-0.297522308132808
-0.47761783746874986	-0.2950012640846328
-0.47755680231249986	-0.29247751935746685
-0.47749576715624986	-0.28995083318758913
-0.47743473199999986	-0.2874209530134622
-0.47737369684374986	-0.2848876250866186
-0.47731266168749986	-0.282350602955933
-0.47725162653124986	-0.2798096545003063
-0.47719059137499986	-0.27726456776153274
-0.47712955621874986	-0.2747151557116404
-0.47706852106249986	-0.27216125997110474
-0.47700748590624986	-0.2696027536582735
-0.47694645074999986	-0.2670395435659456
-0.47688541559374986	-0.26447157152566375
-0.47682438043749986	-0.2618988149578016
-0.47676334528124986	-0.2593212867487721
-0.47670231012499986	-0.25673903415521115
-0.47664127496874986	-0.2541521368856719
-0.47658023981249986	-0.2515607051076967
-0.47651920465624986	-0.24896487724473845
-0.47645816949999986	-0.2463648168839733
-0.47639713434374986	-0.24376070883156314
-0.47633609918749986	-0.2411527549073491
-0.47627506403124986	-0.23854116978057785
-0.47621402887499986	-0.2359261766590585
-0.47615299371874986	-0.2333080027012295
-0.47609195856249986	-0.23068687429993923
-0.47603092340624986	-0.22806301217790675
-0.47596988824999986	-0.22543662619219942
-0.47590885309374986	-0.22280791051549945
-0.47584781793749986	-0.22017703971343916
-0.47578678278124986	-0.21754416511720145
-0.47572574762499986	-0.2149094112024074
-0.47566471246874986	-0.2122728726885672
-0.47560367731249986	-0.20963461255402716
-0.47554264215624986	-0.20699466025586485
-0.47548160699999986	-0.20435301006934545
-0.47542057184374986	-0.20170962030452677
-0.47535953668749986	-0.1990644136886646
-0.47529850153124986	-0.19641727854380428
-0.47523746637499986	-0.19376807045096228
-0.47517643121874986	-0.19111661447470782
-0.47511539606249986	-0.18846270818293265
-0.47505436090624986	-0.18580612557048284
-0.47499332574999986	-0.18314662165837745
-0.47493229059374986	-0.18048393717196615
-0.47487125543749986	-0.1778178031704579
-0.47481022028124986	-0.17514794621100596
-0.47474918512499986	-0.17247409431017346
-0.47468814996874986	-0.16979598324210235
-0.47462711481249986	-0.16711336258467316
-0.47456607965624986	-0.1644260012807433
-0.47450504449999986	-0.1617336927797821
-0.47444400934374986	-0.15903626008869595
-0.47438297418749986	-0.15633356081497785
-0.47432193903124986	-0.15362549167476963
-0.47426090387499986	-0.15091199206952743
-0.47419986871874986	-0.14819304666027758
-0.47413883356249986	-0.1454686870979159
-0.47407779840624986	-0.1427389931740365
-0.47401676324999986	-0.1400040932160754
-0.47395572809374986	-0.13726416344917092
-0.47389469293749986	-0.13451942638018544
-0.47383365778124986	-0.13177014840371365
-0.47377262262499986	-0.12901663659883755
-0.47371158746874986	-0.1262592343165116
-0.47365055231249986	-0.12349831565798584
-0.47358951715624986	-0.12073427957976723
-0.47352848199999986	-0.11796754370596371
-0.47346744684374986	-0.11519853737477805
-0.47340641168749986	-0.11242769426895595
-0.47334537653124986	-0.10965544515625941
-0.47328434137499986	-0.10688221032090028
-0.47322330621874986	-0.10410839171615766
-0.47316227106249986	-0.101334365626235
-0.47310123590624986	-0.09856047581472575
-0.47304020074999986	-0.09578702696014585
-0.47297916559374986	-0.0930142788782789
-0.47291813043749986	-0.09024244158984963
-0.47285709528124986	-0.08747167105010621
-0.47279606012499986	-0.08470206592215335
-0.47273502496874986	-0.08193366550712466
-0.47267398981249986	-0.0791664488298327
-0.47261295465624986	-0.07640033492443013
-0.47255191949999986	-0.0736351840296261
-0.47249088434374986	-0.07087080005838094
-0.47242984918749986	-0.06810693482078332
-0.47236881403124986	-0.06534329346170609
-0.47230777887499986	-0.06257954052400824
-0.47224674371874986	-0.059815306718638765
-0.47218570856249986	-0.05705019668086481
-0.47212467340624986	-0.05428379755668037
-0.47206363824999986	-0.05151568808134612
-0.47200260309374986	-0.04874544795959922
-0.47194156793749986	-0.04597266729062914
-0.47188053278124986	-0.0431969559509285
-0.47181949762499986	-0.0404179529282382
-0.47175846246874986	-0.03763533535413957
-0.47169742731249986	-0.03484882684645945
-0.47163639215624986	-0.03205820483218166
-0.47157535699999986	-0.029263306846156495
-0.47151432184374986	-0.026464035852490984
-0.47145328668749986	-0.02366036447533551
-0.47139225153124986	-0.02085233799144736
-0.47133121637499986	-0.01804007567005426
-0.47127018121874986	-0.015223770400395175
-0.47120914606249986	-0.012403687041754933
-0.47114811090624986	-0.009580159311815818
-0.47108707574999986	-0.006753584900482567
-0.47102604059374986	-0.0039244192073320805
-0.47096500543749986	-0.0010931679613327425
-0.47090397028124986	0.0017396214196767686
-0.47084293512499986	0.004573369410739672
-0.47078189996874986	0.007407474537822793
-0.47072086481249986	0.010241324320466597
-0.47065982965624986	0.013074306850412607
-0.47059879449999986	0.015905822457119505
-0.47053775934374986	0.018735295164294372
-0.47047672418749986	0.02156218376057949
