Time	Frequency
-0.5000305105312499	-0.758778570625221
-0.4999694753749999	-0.7585924387872921
-0.4999084402187499	-0.7583966040540506
-0.4998474050624999	-0.758191124602253
-0.4997863699062499	-0.7579760530816949
-0.4997253347499999	-0.7577514354236354
-0.4996642995937499	-0.7575173096322204
-0.4996032644374999	-0.7572737047233984
-0.4995422292812499	-0.757020640043201
-0.4994811941249999	-0.7567581248927988
-0.4994201589687499	-0.756486158374874
-0.4993591238124999	-0.7562047295466668
-0.4992980886562499	-0.7559138178667513
-0.4992370534999999	-0.7556133937721805
-0.4991760183437499	-0.7553034193841348
-0.4991149831874999	-0.7549838495319118
-0.4990539480312499	-0.7546546330793915
-0.4989929128749999	-0.7543157143712872
-0.4989318777187499	-0.7539670347543168
-0.4988708425624999	-0.7536085341155864
-0.4988098074062499	-0.7532401524198415
-0.4987487722499999	-0.7528618313162011
-0.4986877370937499	-0.7524735157565609
-0.4986267019374999	-0.7520751555941212
-0.4985656667812499	-0.7516667070580308
-0.4985046316249999	-0.7512481338678472
-0.4984435964687499	-0.7508194080679536
-0.4983825613124999	-0.7503805107793721
-0.4983215261562499	-0.7499314327727737
-0.4982604909999999	-0.7494721747260622
-0.4981994558437499	-0.7490027472186728
-0.4981384206874999	-0.748523170517726
-0.4980773855312499	-0.7480334740635785
-0.4980163503749999	-0.7475336956811774
-0.4979553152187499	-0.747023880683649
-0.4978942800624999	-0.7465040807745638
-0.4978332449062499	-0.7459743526908025
-0.4977722097499999	-0.7454347568373538
-0.4977111745937499	-0.7448853558950247
-0.4976501394374999	-0.7443262131877554
-0.4975891042812499	-0.7437573909316113
-0.4975280691249999	-0.7431789485810951
-0.4974670339687499	-0.7425909413331446
-0.4974059988124999	-0.7419934188255863
-0.4973449636562499	-0.7413864239987992
-0.4972839284999999	-0.7407699919334538
-0.4972228933437499	-0.7401441487419045
-0.4971618581874999	-0.739508910899825
-0.4971008230312499	-0.7388642849570665
-0.4970397878749999	-0.7382102673440555
-0.4969787527187499	-0.737546844359511
-0.4969177175624999	-0.7368739924708009
-0.4968566824062499	-0.7361916789779905
-0.4967956472499999	-0.7354998629794081
-0.4967346120937499	-0.73479849645815
-0.4966735769374999	-0.7340875255350912
-0.4966125417812499	-0.7333668919734737
-0.4965515066249999	-0.7326365347832773
-0.4964904714687499	-0.7318963918175921
-0.4964294363124999	-0.7311464014202409
-0.4963684011562499	-0.7303865041947181
-0.4963073659999999	-0.7296166448437017
-0.4962463308437499	-0.728836773916576
-0.4961852956874999	-0.7280468494194461
-0.4961242605312499	-0.7272468383270965
-0.4960632253749999	-0.726436717868003
-0.4960021902187499	-0.7256164764751166
-0.4959411550624999	-0.7247861145116381
-0.4958801199062499	-0.7239456448503739
-0.4958190847499999	-0.7230950932342117
-0.4957580495937499	-0.7222344983829773
-0.4956970144374999	-0.7213639118198152
-0.4956359792812499	-0.7204833972301742
-0.4955749441249999	-0.7195930293087187
-0.4955139089687499	-0.7186928923649188
-0.4954528738124999	-0.7177830788692614
-0.4953918386562499	-0.7168636878878184
-0.4953308034999999	-0.7159348232794195
-0.4952697683437499	-0.7149965915829655
-0.4952087331874999	-0.7140490996833393
-0.4951476980312499	-0.7130924524354454
-0.4950866628749999	-0.7121267503990611
-0.4950256277187499	-0.7111520876609567
-0.4949645925624999	-0.7101685496478815
-0.4949035574062499	-0.7091762110870092
-0.4948425222499999	-0.7081751342556963
-0.4947814870937499	-0.7071653674612334
-0.4947204519374999	-0.7061469437310846
-0.4946594167812499	-0.7051198797196455
-0.4945983816249999	-0.7040841748953945
-0.4945373464687499	-0.7030398111251165
-0.4944763113124999	-0.7019867527817376
-0.4944152761562499	-0.7009249474691269
-0.4943542409999999	-0.699854327133201
-0.4942932058437499	-0.6987748093167756
-0.4942321706874999	-0.6976862988502721
-0.4941711355312499	-0.6965886901683704
-0.4941101003749999	-0.6954818698431919
-0.4940490652187499	-0.6943657191708302
-0.4939880300624999	-0.6932401170376787
-0.4939269949062499	-0.6921049428980284
-0.4938659597499999	-0.6909600795930178
-0.4938049245937499	-0.6898054162747076
-0.4937438894374999	-0.6886408515972264
-0.4936828542812499	-0.687466296742857
-0.4936218191249999	-0.6862816780920228
-0.4935607839687499	-0.6850869395553372
-0.4934997488124999	-0.6838820443633228
-0.4934387136562499	-0.6826669765608016
-0.4933776784999999	-0.6814417423474793
-0.4933166433437499	-0.6802063707005302
-0.4932556081874999	-0.6789609132663444
-0.4931945730312499	-0.6777054440423538
-0.4931335378749999	-0.6764400586586583
-0.4930725027187499	-0.6751648728676648
-0.4930114675624999	-0.6738800205240517
-0.4929504324062499	-0.6725856513232776
-0.4928893972499999	-0.6712819280151016
-0.4928283620937499	-0.6699690229983378
-0.4927673269374999	-0.668647114680597
-0.4927062917812499	-0.6673163837667944
-0.4926452566249999	-0.6659770094646806
-0.4925842214687499	-0.6646291657557571
-0.4925231863124999	-0.6632730177197281
-0.4924621511562499	-0.6619087178809319
-0.4924011159999999	-0.6605364027788625
-0.4923400808437499	-0.659156189926012
-0.4922790456874999	-0.657768175244733
-0.4922180105312499	-0.6563724309939629
-0.4921569753749999	-0.6549690040747534
-0.4920959402187499	-0.6535579148298623
-0.4920349050624999	-0.6521391566282891
-0.4919738699062499	-0.6507126961921536
-0.4919128347499999	-0.6492784743902656
-0.4918517995937499	-0.6478364075787075
-0.4917907644374999	-0.6463863897183757
-0.4917297292812499	-0.6449282950654648
-0.4916686941249999	-0.6434619812032797
-0.4916076589687499	-0.6419872924596033
-0.4915466238124999	-0.6405040637807323
-0.4914855886562499	-0.6390121250014543
-0.4914245534999999	-0.63751130518121
-0.4913635183437499	-0.636001436796241
-0.4913024831874999	-0.6344823599473008
-0.4912414480312499	-0.6329539266283918
-0.4911804128749999	-0.6314160046806134
-0.4911193777187499	-0.629868481228686
-0.4910583425624999	-0.628311265922708
-0.4909973074062499	-0.6267442938526039
-0.4909362722499999	-0.6251675275226839
-0.4908752370937499	-0.6235809580290224
-0.4908142019374999	-0.6219846059288501
-0.4907531667812499	-0.6203785215209576
-0.4906921316249999	-0.6187627842394924
-0.4906310964687499	-0.617137501502153
-0.4905700613124999	-0.6155028070247784
-0.4905090261562499	-0.6138588583159578
-0.4904479909999999	-0.6122058334432326
-0.4903869558437499	-0.610543927226927
-0.4903259206874999	-0.6088733470855122
-0.4902648855312499	-0.6071943088074346
-0.4902038503749999	-0.6055070322119316
-0.4901428152187499	-0.6038117365290389
-0.4900817800624999	-0.6021086355599649
-0.4900207449062499	-0.6003979328884702
-0.4899597097499999	-0.5986798173333363
-0.4898986745937499	-0.5969544587746454
-0.4898376394374999	-0.5952220044745424
-0.4897766042812499	-0.5934825759051486
-0.4897155691249999	-0.5917362659819132
-0.4896545339687499	-0.5899831366799752
-0.4895934988124999	-0.588223217489195
-0.4895324636562499	-0.5864565050270935
-0.4894714284999999	-0.5846829633653997
-0.4894103933437499	-0.5829025248689614
-0.4893493581874999	-0.5811150919121292
-0.4892883230312499	-0.579320539494512
-0.4892272878749999	-0.5775187183846588
-0.4891662527187499	-0.5757094586728709
-0.4891052175624999	-0.5738925739409513
-0.4890441824062499	-0.5720678659782537
-0.4889831472499999	-0.5702351297513165
-0.4889221120937499	-0.5683941585908203
-0.4888610769374999	-0.5665447496295548
-0.4888000417812499	-0.5646867092409523
-0.4887390066249999	-0.5628198580772678
-0.4886779714687499	-0.5609440358195545
-0.4886169363124999	-0.5590591058431676
-0.4885559011562499	-0.5571649593066036
-0.4884948659999999	-0.5552615183132632
-0.4884338308437499	-0.5533487383945138
-0.4883727956874999	-0.5514266105087887
-0.4883117605312499	-0.549495162278297
-0.4882507253749999	-0.5475544581640033
-0.4881896902187499	-0.5456045989416244
-0.4881286550624999	-0.5436457206796043
-0.4880676199062499	-0.5416779927083802
-0.4880065847499999	-0.5397016145274361
-0.4879455495937499	-0.5377168121656362
-0.4878845144374999	-0.5357238340457544
-0.4878234792812499	-0.5337229461294519
-0.4877624441249999	-0.5317144265550555
-0.4877014089687499	-0.5296985601941101
-0.4876403738124999	-0.5276756332042593
-0.4875793386562499	-0.5256459274248271
-0.4875183034999999	-0.5236097147241735
-0.4874572683437499	-0.5215672515753125
-0.4873962331874999	-0.5195187740649523
-0.4873351980312499	-0.5174644934819261
-0.4872741628749999	-0.5154045923607393
-0.4872131277187499	-0.5133392207955513
-0.4871520925624999	-0.5112684933209805
-0.4870910574062499	-0.5091924866927396
-0.4870300222499999	-0.507111238531751
-0.4869689870937499	-0.5050247469246004
-0.4869079519374999	-0.5029329710375131
-0.4868469167812499	-0.5008358324474277
-0.4867858816249999	-0.4987332170573372
-0.4867248464687499	-0.4966249776962712
-0.4866638113124999	-0.4945109375201655
-0.4866027761562499	-0.49239089430880983
-0.4865417409999999	-0.49026462532500575
-0.4864807058437499	-0.48813189237879884
-0.4864196706874999	-0.4859924473916016
-0.4863586355312499	-0.48384603849837526
-0.4862976003749999	-0.4816924160696723
-0.4862365652187499	-0.4795313384173995
-0.4861755300624999	-0.4773625774340182
-0.4861144949062499	-0.47518592415219085
-0.4860534597499999	-0.4730011939554289
-0.4859924245937499	-0.47080823132087624
-0.4859313894374999	-0.46860691401024784
-0.4858703542812499	-0.46639715644068847
-0.4858093191249999	-0.46417891206207523
-0.4857482839687499	-0.461952174846931
-0.4856872488124999	-0.45971698003409134
-0.4856262136562499	-0.4574734042160032
-0.4855651784999999	-0.45522156466582253
-0.4855041433437499	-0.4529616176332552
-0.4854431081874999	-0.450693755626606
-0.4853820730312499	-0.44841820406294963
-0.4853210378749999	-0.4461352175997459
-0.4852600027187499	-0.4438450758087245
-0.4851989675624999	-0.441548077758917
-0.4851379324062499	-0.43924453609465747
-0.4850768972499999	-0.43693477134294306
-0.4850158620937499	-0.43461910601527487
-0.4849548269374999	-0.432297858197277
-0.4848937917812499	-0.4299713354603929
-0.4848327566249999	-0.4276398292444261
-0.4847717214687499	-0.42530360925738553
-0.4847106863124999	-0.42296291824635585
-0.4846496511562499	-0.42061796728533357
-0.4845886159999999	-0.418268931405358
-0.4845275808437499	-0.4159159460997231
-0.4844665456874999	-0.41355910520823813
-0.4844055105312499	-0.4111984596437109
-0.4843444753749999	-0.4088340164903568
-0.4842834402187499	-0.4064657389764283
-0.4842224050624999	-0.4040935475577832
-0.4841613699062499	-0.4017173218925937
-0.4841003347499999	-0.3993369037207906
-0.4840392995937499	-0.39695210064108954
-0.4839782644374999	-0.39456269078458894
-0.4839172292812499	-0.3921684281760191
-0.4838561941249999	-0.38976904828020814
-0.4837951589687499	-0.3873642738355133
-0.4837341238124999	-0.38495382151407664
-0.4836730886562499	-0.3825374092208506
-0.4836120534999999	-0.3801147631992724
-0.4835510183437499	-0.377685624624085
-0.4834899831874999	-0.37524975588842535
-0.4834289480312499	-0.3728069465201113
-0.4833679128749999	-0.3703570185247742
-0.4833068777187499	-0.3678998308966443
-0.4832458425624999	-0.3654352832168875
-0.4831848074062499	-0.36296331884140753
-0.4831237722499999	-0.36048392768666143
-0.4830627370937499	-0.35799714776254654
-0.4830017019374999	-0.35550306506088525
-0.4829406667812499	-0.353001812107741
-0.4828796316249999	-0.35049356550567135
-0.4828185964687499	-0.3479785427042318
-0.4827575613124999	-0.3454569981105535
-0.4826965261562499	-0.34292921849718716
-0.4826354909999999	-0.3403955176855774
-0.4825744558437499	-0.3378562305263829
-0.4825134206874999	-0.3353117062840258
-0.4824523855312499	-0.33276230162125414
-0.4823913503749999	-0.33020837350217025
-0.4823303152187499	-0.3276502721721307
-0.4822692800624999	-0.32508833401716747
-0.4822082449062499	-0.3225228744722754
-0.4821472097499999	-0.3199541813720594
-0.4820861745937499	-0.31738250892278025
-0.4820251394374999	-0.31480807248740184
-0.4819641042812499	-0.31223104419474773
-0.4819030691249999	-0.3096515494137009
-0.4818420339687499	-0.3070696641732866
-0.4817809988124999	-0.30448541347040803
-0.4817199636562499	-0.30189877068189536
-0.4816589284999999	-0.2993096583763886
-0.4815978933437499	-0.29671795037533993
-0.4815368581874999	-0.2941234747968156
-0.4814758230312499	-0.2915260182081505
-0.4814147878749999	-0.28892533091229766
-0.4813537527187499	-0.28632113306091206
-0.4812927175624999	-0.28371312142216104
-0.4812316824062499	-0.28110097682899726
-0.4811706472499999	-0.2784843721934208
-0.4811096120937499	-0.2758629807442972
-0.4810485769374999	-0.2732364843473763
-0.4809875417812499	-0.270604581680808
-0.4809265066249999	-0.26796699575518473
-0.4808654714687499	-0.2653234807287298
-0.4808044363124999	-0.2626738282784058
-0.4807434011562499	-0.2600178735169747
-0.4806823659999999	-0.2573555001173754
-0.4806213308437499	-0.25468664408853897
-0.4805602956874999	-0.2520112961615339
-0.4804992605312499	-0.24932950330475864
-0.4804382253749999	-0.24664136933406827
-0.4803771902187499	-0.2439470541676543
-0.4803161550624999	-0.24124677166922892
-0.4802551199062499	-0.2385407862803815
-0.4801940847499999	-0.23582940864977314
-0.4801330495937499	-0.23311299026921162
-0.4800720144374999	-0.2303919169339036
-0.4800109792812499	-0.22766660125225138
-0.4799499441249999	-0.22493747465221875
-0.4798889089687499	-0.22220497879695342
-0.4798278738124999	-0.21946955646316246
-0.4797668386562499	-0.21673164248459387
-0.4797058034999999	-0.2139916549377268
-0.4796447683437499	-0.2112499865506023
-0.4795837331874999	-0.20850699657693875
-0.4795226980312499	-0.20576300325585986
-0.4794616628749999	-0.2030182771186621
-0.4794006277187499	-0.20027303543256464
-0.4793395925624999	-0.1975274379577234
-0.4792785574062499	-0.19478158420906605
-0.4792175222499999	-0.19203551187136933
-0.4791564870937499	-0.18928919601361072
-0.4790954519374999	-0.18654254955727137
-0.4790344167812499	-0.18379542545625244
-0.4789733816249999	-0.18104762032503835
-0.4789123464687499	-0.17829887911371062
-0.4788513113124999	-0.17554890097117673
-0.4787902761562499	-0.1727973463130225
-0.4787292409999999	-0.17004384466484304
-0.4786682058437499	-0.1672880032943258
-0.4786071706874999	-0.1645294167881663
-0.4785461355312499	-0.16176767706934875
-0.4784851003749999	-0.15900238323834276
-0.4784240652187499	-0.15623315114523253
-0.4783630300624999	-0.15345962269895347
-0.4783019949062499	-0.15068147457300257
-0.4782409597499999	-0.1478984259938115
-0.4781799245937499	-0.14511024569582603
-0.4781188894374999	-0.1423167580703814
-0.4780578542812499	-0.13951784804413261
-0.4779968191249999	-0.13671346448183197
-0.4779357839687499	-0.13390362225371558
-0.4778747488124999	-0.13108840270548958
-0.4778137136562499	-0.1282679524755583
-0.4777526784999999	-0.12544248098482558
-0.4776916433437499	-0.12261225664612589
-0.4776306081874999	-0.11977760185537499
-0.4775695730312499	-0.11693888678713155
-0.4775085378749999	-0.11409652166108698
-0.4774475027187499	-0.11125094768723034
-0.4773864675624999	-0.10840262747955474
-0.4773254324062499	-0.10555203514356218
-0.4772643972499999	-0.1026996459178827
-0.4772033620937499	-0.09984592552440527
-0.4771423269374999	-0.09699131953370056
-0.4770812917812499	-0.09413624333389391
-0.4770202566249999	-0.0912810732064637
-0.4769592214687499	-0.08842613841391227
-0.4768981863124999	-0.08557171428544638
-0.4768371511562499	-0.08271801676970202
-0.4767761159999999	-0.07986519864760316
-0.4767150808437499	-0.07701334746835224
-0.4766540456874999	-0.0741624863508305
-0.4765930105312499	-0.0713125802478156
-0.4765319753749999	-0.06846354913032363
-0.4764709402187499	-0.06561528428090957
-0.4764099050624999	-0.06276766085920812
-0.4763488699062499	-0.059920544296902085
-0.4762878347499999	-0.057073793017575335
-0.4762267995937499	-0.05422725977684892
-0.4761657644374999	-0.05138079232672379
-0.4761047292812499	-0.048534233645359554
-0.4760436941249999	-0.045687421811792875
-0.4759826589687499	-0.042840189705140815
-0.4759216238124999	-0.03999236497181043
-0.4758605886562499	-0.03714377071043312
-0.4757995534999999	-0.03429422694023532
-0.4757385183437499	-0.03144355237258779
-0.4756774831874999	-0.02859156603288234
-0.4756164480312499	-0.025738089107029766
-0.4755554128749999	-0.022882947601174465
-0.4754943777187499	-0.020025975505862586
-0.4754333425624999	-0.017167017895630538
-0.4753723074062499	-0.014305934028429647
-0.4753112722499999	-0.011442600625342853
-0.4752502370937499	-0.008576915183468951
-0.4751892019374999	-0.0057087991586413775
-0.4751281667812499	-0.0028382008192539845
-0.4750671316249999	3.4902484361434315e-05
-0.4750060964687499	0.002910502705060363
-0.4749450613124999	0.005788560180490387
-0.4748840261562499	0.008669003263652539
-0.4748229909999999	0.011551728269945126
-0.4747619558437499	0.014436600031892363
-0.4747009206874999	0.01732345335466432
-0.4746398855312499	0.02021209515972317
-0.4745788503749999	0.023102307173734023
-0.4745178152187499	0.025993849423530307
-0.4744567800624999	0.028886464544056537
-0.4743957449062499	0.03177988223787297
-0.4743347097499999	0.03467382371537282
-0.4742736745937499	0.03756800671900811
-0.4742126394374999	0.04046215107924222
-0.4741516042812499	0.04335598417775135
-0.4740905691249999	0.04624924612019289
-0.4740295339687499	0.049141694657232914
-0.4739684988124999	0.05203310984871279
-0.4739074636562499	0.0549232984333574
-0.4738464284999999	0.057812097610565556
-0.4737853933437499	0.06069937804286942
-0.4737243581874999	0.06358504637239372
-0.4736633230312499	0.06646904726753847
-0.4736022878749999	0.06935136448996015
-0.4735412527187499	0.07223202065897165
-0.4734802175624999	0.0751110759091905
-0.4734191824062499	0.07798862599050906
-0.4733581472499999	0.08086479984235996
-0.4732971120937499	0.08373975625360322
-0.4732360769374999	0.08661367979361599
-0.4731750417812499	0.0894867761402158
-0.4731140066249999	0.09235926660270935
-0.4730529714687499	0.09523138208968698
-0.4729919363124999	0.09810335680349536
-0.4729309011562499	0.10097542163247773
-0.4728698659999999	0.10384779757657187
-0.4728088308437499	0.10672068965001935
-0.4727477956874999	0.1095942809864107
-0.4726867605312499	0.11246872687413327
-0.4726257253749999	0.11534414930844908
-0.4725646902187499	0.1182206325449438
-0.4725036550624999	0.12109821942664516
-0.4724426199062499	0.12397690848604935
-0.4723815847499999	0.12685665198710466
-0.4723205495937499	0.1297373548487243
-0.4722595144374999	0.13261887478272025
-0.4721984792812499	0.13550102371050257
-0.4721374441249999	0.13838356986110434
-0.4720764089687499	0.14126624060083454
-0.4720153738124999	0.14414872661621034
-0.4719543386562499	0.1470306874369714
-0.4718933034999999	0.14991175767294282
-0.4718322683437499	0.152791553599214
-0.4717712331874999	0.15566968019456146
-0.4717101980312499	0.15854573861675286
-0.4716491628749999	0.16141933392093066
-0.4715881277187499	0.16429008284180624
-0.4715270925624999	0.16715762147406427
-0.4714660574062499	0.17002161275806246
-0.4714050222499999	0.17288175342479983
-0.4713439870937499	0.1757377799712836
-0.4712829519374999	0.17858947368877884
-0.4712219167812499	0.1814366650813684
-0.4711608816249999	0.18427923771945484
-0.4710998464687499	0.18711713082771458
-0.4710388113124999	0.18995034010290976
-0.4709777761562499	0.1927789173131472
-0.4709167409999999	0.19560296907905
-0.4708557058437499	0.19842265454526872
-0.4707946706874999	0.2012381817375779
-0.4707336355312499	0.20404980254921895
-0.4706726003749999	0.20685780668649248
-0.4706115652187499	0.20966251498313881
-0.4705505300624999	0.21246427191749928
-0.4704894949062499	0.21526343743935777
-0.4704284597499999	0.21806037852248986
-0.4703674245937499	0.22085546040879375
-0.4703063894374999	0.2236490376797031
-0.4702453542812499	0.22644144553348275
-0.4701843191249999	0.22923299133245573
-0.4701232839687499	0.23202394662008755
-0.4700622488124999	0.23481453996288118
-0.4700012136562499	0.23760495069337367
-0.4699401784999999	0.24039530355673427
-0.4698791433437499	0.24318566438921527
-0.4698181081874999	0.24597603702210352
-0.4697570730312499	0.2487663615362892
