Time	Frequency
-0.5000182760624998	-0.8124538127014392
-0.4999572409062498	-0.8119307312791096
-0.4998962057499998	-0.8113935339517291
-0.4998351705937498	-0.8108421993207429
-0.4997741354374998	-0.8102767113275621
-0.4997131002812498	-0.8096970610004014
-0.4996520651249998	-0.8091032474178178
-0.4995910299687498	-0.808495277415202
-0.4995299948124998	-0.8078731648163612
-0.4994689596562498	-0.8072369297994247
-0.4994079244999998	-0.8065865982369429
-0.4993468893437498	-0.805922200591174
-0.4992858541874998	-0.805243770386876
-0.4992248190312498	-0.8045513427438272
-0.4991637838749998	-0.8038449530152841
-0.4991027487187498	-0.8031246353909647
-0.4990417135624998	-0.8023904216559304
-0.4989806784062498	-0.8016423397803036
-0.4989196432499998	-0.8008804122291242
-0.4988586080937498	-0.8001046550971062
-0.4987975729374998	-0.7993150785569377
-0.4987365377812498	-0.7985116876805426
-0.4986755026249998	-0.7976944829736905
-0.4986144674687498	-0.7968634607880177
-0.4985534323124998	-0.7960186140677588
-0.4984923971562498	-0.7951599336046815
-0.4984313619999998	-0.7942874093014733
-0.4983703268437498	-0.7934010311667339
-0.4983092916874998	-0.7925007903640169
-0.4982482565312498	-0.7915866804750875
-0.4981872213749998	-0.7906586986208269
-0.4981261862187498	-0.7897168460821721
-0.4980651510624998	-0.7887611287921796
-0.4980041159062498	-0.7877915577729264
-0.4979430807499998	-0.7868081488835944
-0.4978820455937498	-0.7858109220509473
-0.4978210104374998	-0.7847999004119667
-0.4977599752812498	-0.7837751093507728
-0.4976989401249998	-0.7827365757170435
-0.4976379049687498	-0.7816843273684462
-0.4975768698124998	-0.7806183927548211
-0.4975158346562498	-0.7795388002621094
-0.4974547994999998	-0.7784455769460696
-0.4973937643437498	-0.7773387469424163
-0.4973327291874998	-0.7762183308428547
-0.4972716940312498	-0.7750843463971198
-0.4972106588749998	-0.7739368092457656
-0.4971496237187498	-0.7727757328528349
-0.4970885885624998	-0.771601128454725
-0.4970275534062498	-0.7704130056021481
-0.4969665182499998	-0.76921137268698
-0.4969054830937498	-0.7679962373949932
-0.4968444479374998	-0.7667676075528739
-0.4967834127812498	-0.7655254920948579
-0.4967223776249998	-0.7642699018254512
-0.4966613424687498	-0.7630008501137381
-0.4966003073124998	-0.7617183533567204
-0.4965392721562498	-0.7604224310496344
-0.4964782369999998	-0.7591131055428381
-0.4964172018437498	-0.7577904014359198
-0.4963561666874998	-0.7564543448925334
-0.4962951315312498	-0.7551049633274852
-0.4962340963749998	-0.753742285247413
-0.4961730612187498	-0.7523663395015144
-0.4961120260624998	-0.7509771540705443
-0.4960509909062498	-0.749574755441542
-0.4959899557499998	-0.7481591684793044
-0.4959289205937498	-0.7467304158859325
-0.4958678854374998	-0.7452885175791708
-0.4958068502812498	-0.7438334908082982
-0.4957458151249998	-0.7423653506723249
-0.4956847799687498	-0.7408841104050589
-0.4956237448124998	-0.739389781710795
-0.4955627096562498	-0.7378823753777598
-0.4955016744999998	-0.7363619015030437
-0.4954406393437498	-0.7348283697397585
-0.4953796041874998	-0.7332817910631179
-0.4953185690312498	-0.731722180126642
-0.4952575338749998	-0.7301495559202904
-0.4951964987187498	-0.7285639411073556
-0.4951354635624998	-0.7269653619392894
-0.4950744284062498	-0.7253538489152805
-0.4950133932499998	-0.723729437162928
-0.4949523580937498	-0.7220921662411992
-0.4948913229374998	-0.7204420796808026
-0.4948302877812498	-0.7187792240907728
-0.4947692526249998	-0.7171036474615059
-0.4947082174687498	-0.7154153974231803
-0.4946471823124998	-0.7137145200914509
-0.4945861471562498	-0.7120010590891789
-0.4945251119999998	-0.7102750548066091
-0.4944640768437498	-0.708536543786636
-0.4944030416874998	-0.7067855577771475
-0.4943420065312498	-0.705022123196546
-0.4942809713749998	-0.7032462614722459
-0.4942199362187498	-0.7014579890553824
-0.4941589010624998	-0.6996573170772654
-0.4940978659062498	-0.6978442526187961
-0.4940368307499998	-0.6960188010550727
-0.4939757955937498	-0.6941809670967448
-0.4939147604374998	-0.6923307554845332
-0.4938537252812498	-0.6904681726595941
-0.4937926901249998	-0.6885932282507292
-0.4937316549687498	-0.686705936148723
-0.4936706198124998	-0.6848063156726664
-0.4936095846562498	-0.6828943924668066
-0.4935485494999998	-0.680970198774862
-0.4934875143437498	-0.679033773241706
-0.4934264791874998	-0.6770851605631644
-0.4933654440312498	-0.6751244106539349
-0.4933044088749998	-0.6731515773564057
-0.4932433737187498	-0.6711667176776144
-0.4931823385624998	-0.669169891159672
-0.4931213034062498	-0.6671611581128295
-0.4930602682499998	-0.6651405773639049
-0.4929992330937498	-0.6631082046787078
-0.4929381979374998	-0.6610640916519139
-0.4928771627812498	-0.6590082848104207
-0.4928161276249998	-0.6569408249917957
-0.4927550924687498	-0.6548617471722069
-0.4926940573124998	-0.6527710805423805
-0.4926330221562498	-0.6506688481055861
-0.4925719869999998	-0.6485550665764914
-0.4925109518437498	-0.6464297477036083
-0.4924499166874998	-0.6442929000596931
-0.4923888815312498	-0.6421445304751401
-0.4923278463749998	-0.6399846453388336
-0.4922668112187498	-0.6378132519370987
-0.4922057760624998	-0.635630360646368
-0.4921447409062498	-0.6334359878576257
-0.4920837057499998	-0.6312301575500562
-0.4920226705937498	-0.6290129006279442
-0.4919616354374998	-0.6267842540423004
-0.4919006002812498	-0.6245442613665491
-0.4918395651249998	-0.6222929732326434
-0.4917785299687498	-0.6200304461397234
-0.4917174948124998	-0.6177567405137736
-0.4916564596562498	-0.6154719186198544
-0.4915954244999998	-0.6131760423820173
-0.4915343893437498	-0.6108691715323369
-0.4914733541874998	-0.6085513621890377
-0.4914123190312498	-0.6062226660684829
-0.4913512838749998	-0.6038831302323557
-0.4912902487187498	-0.6015327963776954
-0.4912292135624998	-0.5991717003082864
-0.4911681784062498	-0.5967998729483192
-0.4911071432499998	-0.5944173418335481
-0.4910461080937498	-0.5920241322409733
-0.4909850729374998	-0.5896202685237499
-0.4909240377812498	-0.5872057749685732
-0.4908630026249998	-0.5847806759901412
-0.4908019674687498	-0.5823449974553849
-0.4907409323124998	-0.5798987689673314
-0.4906798971562498	-0.577442025163826
-0.4906188619999998	-0.5749748060452222
-0.4905578268437498	-0.5724971568443833
-0.4904967916874998	-0.5700091276913303
-0.4904357565312498	-0.5675107730802441
-0.4903747213749998	-0.565002150310068
-0.4903136862187498	-0.5624833176376254
-0.4902526510624998	-0.5599543331381892
-0.4901916159062498	-0.5574152536003941
-0.4901305807499998	-0.5548661332006264
-0.4900695455937498	-0.5523070223323078
-0.4900085104374998	-0.5497379666231084
-0.4899474752812498	-0.547159006035097
-0.4898864401249998	-0.5445701738904992
-0.4898254049687498	-0.5419714964347702
-0.4897643698124998	-0.5393629944514629
-0.4897033346562498	-0.5367446855801651
-0.4896422994999998	-0.5341165846748247
-0.4895812643437498	-0.5314787043367936
-0.4895202291874998	-0.528831058316603
-0.4894591940312498	-0.5261736655926259
-0.4893981588749998	-0.5235065524622702
-0.4893371237187498	-0.5208297533881074
-0.4892760885624998	-0.5181433120608071
-0.4892150534062498	-0.5154472822365856
-0.4891540182499998	-0.5127417276473512
-0.4890929830937498	-0.5100267213733819
-0.4890319479374998	-0.5073023449811944
-0.4889709127812498	-0.5045686870102928
-0.4889098776249998	-0.5018258402077534
-0.4888488424687498	-0.4990738978781704
-0.4887878073124998	-0.4963129508523553
-0.4887267721562498	-0.4935430846307486
-0.4886657369999998	-0.4907643754223739
-0.4886047018437498	-0.4879768870647213
-0.4885436666874998	-0.4851806699289291
-0.4884826315312498	-0.48237575983686853
-0.4884215963749998	-0.47956217742527857
-0.4883605612187498	-0.4767399299253394
-0.4882995260624998	-0.4739090138428785
-0.4882384909062498	-0.47106941658673
-0.4881774557499998	-0.4682211188858397
-0.4881164205937498	-0.4653640996248914
-0.4880553854374998	-0.4624983412617588
-0.4879943502812498	-0.45962383396296214
-0.4879333151249998	-0.4567405786350636
-0.4878722799687498	-0.4538485900898157
-0.4878112448124998	-0.4509479005838416
-0.4877502096562498	-0.44803856177858314
-0.4876891744999998	-0.44512064406870816
-0.4876281393437498	-0.44219423465349533
-0.4875671041874998	-0.4392594358821101
-0.4875060690312498	-0.4363163632600936
-0.4874450338749998	-0.4333651414778537
-0.4873839987187498	-0.4304058995617419
-0.4873229635624998	-0.42743876676916576
-0.4872619284062498	-0.42446386785866225
-0.4872008932499998	-0.4214813172497225
-0.4871398580937498	-0.4184912146555565
-0.4870788229374998	-0.41549364310392783
-0.4870177877812498	-0.41248866730666156
-0.4869567526249998	-0.4094763322159831
-0.4868957174687498	-0.40645666363654454
-0.4868346823124998	-0.40342967065352003
-0.4867736471562498	-0.4003953485380333
-0.4867126119999998	-0.3973536820104657
-0.4866515768437498	-0.39430464878203303
-0.4865905416874998	-0.39124822364778006
-0.4865295065312498	-0.3881843842191022
-0.4864684713749998	-0.3851131169123785
-0.4864074362187498	-0.38203442040281105
-0.4863464010624998	-0.3789483075758138
-0.4862853659062498	-0.37585480803286947
-0.4862243307499998	-0.372753970136488
-0.4861632955937498	-0.3696458613055393
-0.4861022604374998	-0.3665305667738232
-0.4860412252812498	-0.3634081871832748
-0.4859801901249998	-0.3602788353151366
-0.4859191549687498	-0.3571426328853578
-0.4858581198124998	-0.35399970711485745
-0.4857970846562498	-0.35085018586844324
-0.4857360494999998	-0.3476941924098949
-0.4856750143437498	-0.34453184140951165
-0.4856139791874998	-0.3413632363178966
-0.4855529440312498	-0.33818846684752435
-0.4854919088749998	-0.3350076057712819
-0.4854308737187498	-0.33182070713544015
-0.4853698385624998	-0.32862780742712266
-0.4853088034062498	-0.3254289279029986
-0.4852477682499998	-0.3222240764448775
-0.4851867330937498	-0.31901324937900005
-0.4851256979374998	-0.3157964346223736
-0.4850646627812498	-0.31257361676936235
-0.4850036276249998	-0.30934478197283866
-0.4849425924687498	-0.3061099207423865
-0.4848815573124998	-0.30286903040858887
-0.4848205221562498	-0.29962211839113634
-0.4847594869999998	-0.29636920493792673
-0.4846984518437498	-0.2931103249084
-0.4846374166874998	-0.289845528901709
-0.4845763815312498	-0.28657488314406687
-0.4845153463749998	-0.28329846825919774
-0.4844543112187498	-0.280016377274843
-0.4843932760624998	-0.2767287126703215
-0.4843322409062498	-0.2734355838609548
-0.4842712057499998	-0.27013710502837424
-0.4842101705937498	-0.266833391224771
-0.4841491354374998	-0.26352455423988386
-0.4840881002812498	-0.26021070021079007
-0.4840270651249998	-0.2568919274817539
-0.4839660299687498	-0.25356832437214527
-0.4839049948124998	-0.25023996831415574
-0.4838439596562498	-0.24690692551108473
-0.4837829244999998	-0.24356925017146314
-0.4837218893437498	-0.24022698465124478
-0.4836608541874998	-0.2368801612915876
-0.4835998190312498	-0.2335288046967947
-0.4835387838749998	-0.23017293319509666
-0.4834777487187498	-0.22681256035606476
-0.4834167135624998	-0.22344769692389155
-0.4833556784062498	-0.22007835258195296
-0.4832946432499998	-0.21670453867472453
-0.4832336080937498	-0.2133262722199878
-0.4831725729374998	-0.20994357902648103
-0.4831115377812498	-0.20655649412624405
-0.4830505026249998	-0.20316506120627748
-0.4829894674687498	-0.19976933329301524
-0.4829284323124998	-0.1963693730611741
-0.4828673971562498	-0.1929652517327021
-0.4828063619999998	-0.18955704866466627
-0.4827453268437498	-0.1861448511659451
-0.4826842916874998	-0.18272875254791035
-0.4826232565312498	-0.1793088496357845
-0.4825622213749998	-0.1758852407303824
-0.4825011862187498	-0.1724580232238546
-0.4824401510624998	-0.16902729162485514
-0.4823791159062498	-0.16559313652472943
-0.4823180807499998	-0.16215564313659547
-0.4822570455937498	-0.15871488905990994
-0.4821960104374998	-0.15527094322905474
-0.4821349752812498	-0.15182386709751036
-0.4820739401249998	-0.1483737161576867
-0.4820129049687498	-0.14492054036288834
-0.4819518698124998	-0.14146438402631245
-0.4818908346562498	-0.13800528587723293
-0.4818297994999998	-0.13454327959747645
-0.4817687643437498	-0.1310783954793305
-0.4817077291874998	-0.12761066321572603
-0.4816466940312498	-0.12414011355229206
-0.4815856588749998	-0.12066677828359088
-0.4815246237187498	-0.11719069127178257
-0.4814635885624998	-0.11371189073401686
-0.4814025534062498	-0.11023042116914625
-0.4813415182499998	-0.10674633421215561
-0.4812804830937498	-0.10325968793708695
-0.4812194479374998	-0.09977054568338455
-0.4811584127812498	-0.09627897588515848
-0.4810973776249998	-0.09278505191853804
-0.4810363424687498	-0.08928885096152299
-0.4809753073124998	-0.08579045301951782
-0.4809142721562498	-0.08228994066701542
-0.4808532369999998	-0.07878739846431947
-0.4807922018437498	-0.0752829119394841
-0.4807311666874998	-0.07177656638666939
-0.4806701315312498	-0.06826844551424896
-0.4806090963749998	-0.06475863091304737
-0.4805480612187498	-0.0612472019986717
-0.4804870260624998	-0.05773423508039555
-0.4804259909062498	-0.054219801926055834
-0.4803649557499998	-0.050703969177112354
-0.4803039205937498	-0.04718679905764605
-0.4802428854374998	-0.04366835026708086
-0.4801818502812498	-0.040148678717870805
-0.4801208151249998	-0.03662783830406639
-0.4800597799687498	-0.033105880781285624
-0.4799987448124998	-0.02958285554817639
-0.4799377096562498	-0.02605881055951162
-0.4798766744999998	-0.022533793130947152
-0.4798156393437498	-0.01900784990828673
-0.4797546041874998	-0.015481026870457028
-0.4796935690312498	-0.011953369654896523
-0.4796325338749998	-0.008424924226063005
-0.4795714987187498	-0.004895737862706418
-0.4795104635624998	-0.00136585989249146
-0.4794494284062498	0.002164657555414037
-0.4793883932499998	0.005695758417141858
-0.4793273580937498	0.009227382028119192
-0.4792663229374998	0.012759463257988376
-0.4792052877812498	0.016291933302828653
-0.4791442526249998	0.01982472063943931
-0.4790832174687498	0.023357750774463896
-0.4790221823124998	0.02689094531049292
-0.4789611471562498	0.030424222612933396
-0.4789001119999998	0.033957500271458184
-0.4788390768437498	0.037490697408426504
-0.4787780416874998	0.04102373547608405
-0.4787170065312498	0.044556538198563644
-0.4786559713749998	0.04808903241160382
-0.4785949362187498	0.05162114966687163
-0.4785339010624998	0.05515282686251598
-0.4784728659062498	0.05868400610497679
-0.4784118307499998	0.06221463472319013
-0.4783507955937498	0.0657446650834897
-0.4782897604374998	0.06927405404608283
-0.4782287252812498	0.0728027625892871
-0.4781676901249998	0.07633075518036438
-0.4781066549687498	0.0798579973287925
-0.4780456198124998	0.08338445237172278
-0.4779845846562498	0.08691007960740314
-0.4779235494999998	0.09043483318409884
-0.4778625143437498	0.093958661162729
-0.4778014791874998	0.09748150478441663
-0.4777404440312498	0.10100329770571537
-0.4776794088749998	0.10452396547608242
-0.4776183737187498	0.1080434256673816
-0.4775573385624998	0.11156158846868551
-0.4774963034062498	0.11507835782188003
-0.4774352682499998	0.11859363362634386
-0.4773742330937498	0.12210731390120094
-0.4773131979374998	0.12561929639657682
-0.4772521627812498	0.12912948090753826
-0.4771911276249998	0.13263777183194392
-0.4771300924687498	0.1361440799225233
-0.4770690573124998	0.13964832350773496
-0.4770080221562498	0.14315042967028674
-0.4769469869999998	0.14665033567479904
-0.4768859518437498	0.15014799001715795
-0.4768249166874998	0.1536433514840403
-0.4767638815312498	0.15713638665946095
-0.4767028463749998	0.16062706841259383
-0.4766418112187498	0.16411537531304243
-0.4765807760624998	0.16760129001418855
-0.4765197409062498	0.17108479674692476
-0.4764587057499998	0.1745658788396946
-0.4763976705937498	0.1780445158684238
-0.4763366354374998	0.18152068051747666
-0.4762756002812498	0.18499433659875913
-0.4762145651249998	0.18846543823053083
-0.4761535299687498	0.1919339288090338
-0.4760924948124998	0.19539973997401028
-0.4760314596562498	0.1988627916129357
-0.4759704244999998	0.2023229930589985
-0.4759093893437498	0.20578024496748767
-0.4758483541874998	0.2092344411195957
-0.4757873190312498	0.21268546989104445
-0.4757262838749998	0.2161332159572576
-0.4756652487187498	0.21957756240165147
-0.4756042135624998	0.22301839298981557
-0.4755431784062498	0.22645559495456985
-0.4754821432499998	0.22988906215170488
-0.4754211080937498	0.2333186978119882
-0.4753600729374998	0.23674441690317577
-0.4752990377812498	0.2401661478526673
-0.4752380026249998	0.24358383288463412
-0.4751769674687498	0.24699742763013416
-0.4751159323124998	0.2504069007978332
-0.4750548971562498	0.2538122333259056
-0.4749938619999998	0.25721341638721373
-0.4749328268437498	0.26061044872243366
-0.4748717916874998	0.26400333418978555
-0.4748107565312498	0.2673920791161053
-0.4747497213749998	0.27077668838293106
-0.4746886862187498	0.2741571607405117
-0.4746276510624998	0.27753348499375813
-0.4745666159062498	0.2809056374339746
-0.4745055807499998	0.28427357982790025
-0.4744445455937498	0.287637258421803
-0.4743835104374998	0.29099660366404456
-0.4743224752812498	0.2943515292761904
-0.4742614401249998	0.297701932195053
-0.4742004049687498	0.3010476948590196
-0.4741393698124998	0.30438868834412286
-0.4740783346562498	0.30772477564446477
-0.4740172994999998	0.31105581507666286
-0.4739562643437498	0.31438166359326103
-0.4738952291874998	0.31770218080070134
-0.4738341940312498	0.3210172337793842
-0.4737731588749998	0.324326701465411
-0.4737121237187498	0.3276304781061737
-0.4736510885624998	0.3309284762735403
-0.4735900534062498	0.33422062899522514
-0.4735290182499998	0.3375068903148792
-0.4734679830937498	0.34078723466471467
-0.4734069479374998	0.3440616551901039
-0.4733459127812498	0.34733016102646047
-0.4732848776249998	0.3505927741295937
-0.4732238424687498	0.35384952581539475
-0.4731628073124998	0.35710045249140965
-0.4731017721562498	0.36034559071182365
-0.4730407369999998	0.363584972469721
-0.4729797018437498	0.36681862068697807
-0.4729186666874998	0.3700465445089619
-0.4728576315312498	0.37326873521294796
-0.4727965963749998	0.376485163352181
-0.4727355612187498	0.37969577695010676
-0.4726745260624998	0.3829005009324349
-0.4726134909062498	0.38609923803720053
-0.4725524557499998	0.38929187074042887
-0.4724914205937498	0.39247826395027935
-0.4724303854374998	0.395658268511575
-0.4723693502812498	0.39883172515845466
-0.4723083151249998	0.40199846884510904
-0.4722472799687498	0.4051583335303873
-0.4721862448124998	0.4083111573547799
-0.4721252096562498	0.4114567874232914
-0.4720641744999998	0.41459508251059224
-0.4720031393437498	0.4177259129704658
-0.4719421041874998	0.4208491560973155
-0.4718810690312498	0.42396468530937165
-0.4718200338749998	0.4270723607331265
-0.4717589987187498	0.43017203260616277
-0.4716979635624998	0.43326355643339864
-0.4716369284062498	0.43634680995057606
-0.4715758932499998	0.4394217065946826
-0.4715148580937498	0.44248820506942804
-0.4714538229374998	0.4455463152380285
-0.4713927877812498	0.4485961000727336
-0.4713317526249998	0.45163767266053834
-0.4712707174687498	0.45467118895655984
-0.4712096823124998	0.45769683822796
-0.4711486471562498	0.4607148311048101
-0.4710876119999998	0.4637253851685738
-0.4710265768437498	0.46672870957488827
-0.4709655416874998	0.46972498985431194
-0.4709045065312498	0.4727143735851647
-0.4708434713749998	0.475696957986811
-0.4707824362187498	0.47867278088114235
-0.4707214010624998	0.48164181531871014
-0.4706603659062498	0.48460396710950354
-0.4705993307499998	0.48755907602795423
-0.4705382955937498	0.4905069216832309
-0.4704772604374998	0.493447233087093
-0.4704162252812498	0.496379700999454
-0.4703551901249998	0.49930399288428773
-0.4702941549687498	0.5022197692414335
-0.4702331198124998	0.5051266997698549
-0.4701720846562498	0.5080244790526731
-0.4701110494999998	0.5109128409824324
-0.4700500143437498	0.5137915701661842
-0.4699889791874998	0.5166605100992934
-0.4699279440312498	0.5195195686082538
-0.4698669088749998	0.5223687195248592
-0.4698058737187498	0.5252079996298586
-0.4697448385624998	0.5280375014036615
-0.4696838034062498	0.5308573628894664
-0.4696227682499998	0.5336677554470484
