Time	Frequency
-0.5000610273124999	-0.6625855102574962
-0.4999999921562499	-0.6614111463064708
-0.4999389569999999	-0.660228812772506
-0.4998779218437499	-0.6590385594440457
-0.4998168866874999	-0.6578404194512174
-0.4997558515312499	-0.6566344085415967
-0.4996948163749999	-0.6554205248319858
-0.4996337812187499	-0.6541987492012727
-0.4995727460624999	-0.6529690464791863
-0.4995117109062499	-0.6517313671186103
-0.4994506757499999	-0.6504856490911537
-0.4993896405937499	-0.649231820053872
-0.4993286054374999	-0.6479697997639352
-0.4992675702812499	-0.6466995028209118
-0.4992065351249999	-0.6454208417739028
-0.4991454999687499	-0.644133730353988
-0.4990844648124999	-0.6428380865696325
-0.4990234296562499	-0.6415338355831336
-0.4989623944999999	-0.6402209124922037
-0.4989013593437499	-0.6388992649346594
-0.4988403241874999	-0.6375688553124432
-0.4987792890312499	-0.6362296625324348
-0.4987182538749999	-0.6348816829794599
-0.4986572187187499	-0.6335249308446893
-0.4985961835624999	-0.632159438173562
-0.4985351484062499	-0.630785254394378
-0.4984741132499999	-0.6294024451961918
-0.4984130780937499	-0.628011091026796
-0.4983520429374999	-0.6266112852471857
-0.4982910077812499	-0.6252031318743583
-0.4982299726249999	-0.6237867429271268
-0.4981689374687499	-0.6223622352772082
-0.4981079023124999	-0.6209297273235889
-0.4980468671562499	-0.6194893361089834
-0.4979858319999999	-0.6180411745782975
-0.4979247968437499	-0.6165853484178222
-0.4978637616874999	-0.6151219528603867
-0.4978027265312499	-0.6136510700609611
-0.4977416913749999	-0.6121727670164868
-0.4976806562187499	-0.6106870938304777
-0.4976196210624999	-0.6091940826383275
-0.4975585859062499	-0.6076937472911581
-0.4974975507499999	-0.6061860832121656
-0.4974365155937499	-0.6046710674158657
-0.4973754804374999	-0.6031486593630763
-0.4973144452812499	-0.6016188027807613
-0.4972534101249999	-0.600081427998006
-0.4971923749687499	-0.5985364545456069
-0.4971313398124999	-0.5969837940297505
-0.4970703046562499	-0.5954233531170297
-0.4970092694999999	-0.593855036601256
-0.4969482343437499	-0.592278750890748
-0.4968871991874999	-0.5906944077688987
-0.4968261640312499	-0.5891019276949438
-0.4967651288749999	-0.5875012424685505
-0.4967040937187499	-0.5858922977695429
-0.4966430585624999	-0.5842750557057629
-0.4965820234062499	-0.5826494967955202
-0.4965209882499999	-0.5810156210514237
-0.4964599530937499	-0.5793734486417327
-0.4963989179374999	-0.5777230204151567
-0.4963378827812499	-0.5760643977728319
-0.4962768476249999	-0.5743976614696822
-0.4962158124687499	-0.5727229097486654
-0.4961547773124999	-0.5710402562995516
-0.4960937421562499	-0.5693498278675216
-0.4960327069999999	-0.5676517614054049
-0.4959716718437499	-0.5659462009294688
-0.4959106366874999	-0.5642332940683488
-0.4958496015312499	-0.5625131884140996
-0.4957885663749999	-0.5607860279826877
-0.4957275312187499	-0.559051949852279
-0.4956664960624999	-0.5573110806005548
-0.4956054609062499	-0.55556353253786
-0.4955444257499999	-0.5538094005940829
-0.4954833905937499	-0.552048760390623
-0.4954223554374999	-0.5502816668620208
-0.4953613202812499	-0.5485081528247084
-0.4953002851249999	-0.5467282279930124
-0.4952392499687499	-0.5449418788860465
-0.4951782148124999	-0.5431490694036761
-0.4951171796562499	-0.5413497421156975
-0.4950561444999999	-0.5395438201751944
-0.4949951093437499	-0.5377312095885873
-0.4949340741874999	-0.535911802188743
-0.4948730390312499	-0.5340854790962755
-0.4948120038749999	-0.5322521141283851
-0.4947509687187499	-0.5304115777100419
-0.4946899335624999	-0.5285637413980273
-0.4946288984062499	-0.5267084822286829
-0.4945678632499999	-0.5248456868139908
-0.4945068280937499	-0.5229752553502565
-0.4944457929374999	-0.5210971051870866
-0.4943847577812499	-0.5192111739060049
-0.4943237226249999	-0.5173174220394292
-0.4942626874687499	-0.5154158351152615
-0.4942016523124999	-0.51350642504117
-0.4941406171562499	-0.511589231033807
-0.4940795819999999	-0.5096643196381101
-0.4940185468437499	-0.5077317836010922
-0.4939575116874999	-0.5057917399476943
-0.4938964765312499	-0.5038443273688378
-0.4938354413749999	-0.5018897029882621
-0.4937744062187499	-0.4999280388221083
-0.4937133710624999	-0.4979595178975404
-0.4936523359062499	-0.49598432977885426
-0.4935913007499999	-0.49400266573883256
-0.4935302655937499	-0.492014713936399
-0.4934692304374999	-0.4900206545483597
-0.4934081952812499	-0.48802065486177176
-0.4933471601249999	-0.48601486482476813
-0.4932861249687499	-0.4840034135467175
-0.4932250898124999	-0.4819864065534421
-0.4931640546562499	-0.4799639233572294
-0.4931030194999999	-0.47793601545395586
-0.4930419843437499	-0.4759027051714415
-0.4929809491874999	-0.47386398575854005
-0.4929199140312499	-0.4718198224785211
-0.4928588788749999	-0.4697701541178988
-0.4927978437187499	-0.4677148953470294
-0.4927368085624999	-0.4656539401838431
-0.4926757734062499	-0.46358716585556625
-0.4926147382499999	-0.4615144369626694
-0.4925537030937499	-0.45943561015325374
-0.4924926679374999	-0.45735053901615386
-0.4924316327812499	-0.45525907892944184
-0.4923705976249999	-0.4531610918859896
-0.4923095624687499	-0.4510564512276693
-0.4922485273124999	-0.44894504592475193
-0.4921874921562499	-0.44682678426622624
-0.4921264569999999	-0.44470159724923375
-0.4920654218437499	-0.4425694414864194
-0.4920043866874999	-0.44043030104191283
-0.4919433515312499	-0.4382841881899831
-0.4918823163749999	-0.4361311433319484
-0.4918212812187499	-0.4339712341810661
-0.4917602460624999	-0.43180455428636655
-0.4916992109062499	-0.42963122068565335
-0.4916381757499999	-0.42745137070044137
-0.4915771405937499	-0.4252651582081749
-0.4915161054374999	-0.4230727495529389
-0.4914550702812499	-0.42087431913042894
-0.4913940351249999	-0.418670044599465
-0.4913329999687499	-0.4164601019635492
-0.4912719648124999	-0.41424466103142804
-0.4912109296562499	-0.4120238812383975
-0.4911498944999999	-0.40979790772222296
-0.4910888593437499	-0.4075668678596448
-0.4910278241874999	-0.405330868121575
-0.4909667890312499	-0.4030899914398562
-0.4909057538749999	-0.40084429579875547
-0.4908447187187499	-0.3985938137902166
-0.4907836835624999	-0.39633855263810186
-0.4907226484062499	-0.39407849520312993
-0.4906616132499999	-0.39181360189569936
-0.4906005780937499	-0.3895438127126967
-0.4905395429374999	-0.38726904963558884
-0.4904785077812499	-0.38498921998424956
-0.4904174726249999	-0.38270422056930076
-0.4903564374687499	-0.3804139420926849
-0.4902954023124999	-0.37811827356375866
-0.4902343671562499	-0.37581710687380115
-0.4901733319999999	-0.3735103411109915
-0.4901122968437499	-0.3711978860865692
-0.4900512616874999	-0.3688796656200634
-0.4899902265312499	-0.3665556210728241
-0.4899291913749999	-0.3642257144743972
-0.4898681562187499	-0.36188993048325574
-0.4898071210624999	-0.3595482772781676
-0.4897460859062499	-0.35720078684269574
-0.4896850507499999	-0.3548475147804771
-0.4896240155937499	-0.3524885397607215
-0.4895629804374999	-0.3501239624566691
-0.4895019452812499	-0.34775390342519674
-0.4894409101249999	-0.34537850008673127
-0.4893798749687499	-0.3429979034305352
-0.4893188398124999	-0.34061227439940195
-0.4892578046562499	-0.33822177990929564
-0.4891967694999999	-0.33582658886131567
-0.4891357343437499	-0.3334268679632307
-0.4890746991874999	-0.3310227773327713
-0.4890136640312499	-0.32861446673120814
-0.4889526288749999	-0.3262020723473502
-0.4888915937187499	-0.32378571338915957
-0.4888305585624999	-0.3213654890547687
-0.4887695234062499	-0.31894147656695476
-0.4887084882499999	-0.3165137298894087
-0.4886474530937499	-0.31408227890719065
-0.4885864179374999	-0.311647129320164
-0.4885253827812499	-0.309208263340405
-0.4884643476249999	-0.30676564116932103
-0.4884033124687499	-0.30431920308160604
-0.4883422773124999	-0.3018688720178013
-0.4882812421562499	-0.2994145567307086
-0.4882202069999999	-0.29695615527924096
-0.4881591718437499	-0.2944935587708524
-0.4880981366874999	-0.2920266553792387
-0.4880371015312499	-0.2895553345849046
-0.4879760663749999	-0.28707949155936624
-0.4879150312187499	-0.2845990312695341
-0.4878539960624999	-0.28211387198596083
-0.4877929609062499	-0.2796239484038959
-0.4877319257499999	-0.27712921453735995
-0.4876708905937499	-0.2746296462611209
-0.4876098554374999	-0.27212524314812236
-0.4875488202812499	-0.26961602920252425
-0.4874877851249999	-0.26710205267898346
-0.4874267499687499	-0.2645833856517185
-0.4873657148124999	-0.2620601234285815
-0.4873046796562499	-0.2595323831462426
-0.4872436444999999	-0.2570003012321605
-0.4871826093437499	-0.25446403009239493
-0.4871215741874999	-0.2519237344784574
-0.4870605390312499	-0.24937958798978546
-0.4869995038749999	-0.2468317693751026
-0.4869384687187499	-0.2442804580321189
-0.4868774335624999	-0.2417258295695371
-0.4868163984062499	-0.23916805206944663
-0.4867553632499999	-0.23660728232258996
-0.4866943280937499	-0.23404366183578676
-0.4866332929374999	-0.23147731317597128
-0.4865722577812499	-0.22890833712963396
-0.4865112226249999	-0.22633681081814896
-0.4864501874687499	-0.22376278655998963
-0.4863891523124999	-0.22118629131180098
-0.4863281171562499	-0.21860732672063599
-0.4862670819999999	-0.2160258699514526
-0.4862060468437499	-0.21344187529290637
-0.4861450116874999	-0.21085527631487835
-0.4860839765312499	-0.20826598858702774
-0.4860229413749999	-0.20567391300859353
-0.4859619062187499	-0.2030789397423157
-0.4859008710624999	-0.20048095288667261
-0.4858398359062499	-0.1978798354475424
-0.4857788007499999	-0.1952754738921204
-0.4857177655937499	-0.19266776249315745
-0.4856567304374999	-0.19005660770100666
-0.4855956952812499	-0.18744193197674705
-0.4855346601249999	-0.18482367691902274
-0.4854736249687499	-0.18220180592640303
-0.4854125898124999	-0.17957630625696355
-0.4853515546562499	-0.17694719041921644
-0.4852905194999999	-0.17431449683667447
-0.4852294843437499	-0.17167828957155495
-0.4851684491874999	-0.16903865735366272
-0.4851074140312499	-0.16639571217573867
-0.4850463788749999	-0.16374958709552523
-0.4849853437187499	-0.1611004329602715
-0.4849243085624999	-0.1584484145279766
-0.4848632734062499	-0.1557937065984825
-0.4848022382499999	-0.15313649005840227
-0.4847412030937499	-0.15047694769760564
-0.4846801679374999	-0.14781525997385683
-0.4846191327812499	-0.1451516005373713
-0.4845580976249999	-0.14248613151804373
-0.4844970624687499	-0.13981899918807755
-0.4844360273124999	-0.13715033026095041
-0.4843749921562499	-0.13448022869032383
-0.4843139569999999	-0.13180877304797473
-0.4842529218437499	-0.1291360145758417
-0.4841918866874999	-0.1264619759949805
-0.4841308515312499	-0.12378665144784898
-0.4840698163749999	-0.12111000754397946
-0.4840087812187499	-0.11843198480807197
-0.4839477460624999	-0.1157524998033641
-0.4838867109062499	-0.11307144874398395
-0.4838256757499999	-0.11038871196543842
-0.4837646405937499	-0.10770415852790907
-0.4837036054374999	-0.10501765121428967
-0.4836425702812499	-0.10232905180952345
-0.4835815351249999	-0.09963822636490122
-0.4835204999687499	-0.09694505048380632
-0.4834594648124999	-0.09424941429354909
-0.4833984296562499	-0.09155122670602105
-0.4833373944999999	-0.08885041922952519
-0.4832763593437499	-0.08614694961962298
-0.4832153241874999	-0.08344080474993414
-0.4831542890312499	-0.08073200211698696
-0.4830932538749999	-0.07802059034917633
-0.4830322187187499	-0.075306648987894
-0.4829711835624999	-0.0725902874885164
-0.4829101484062499	-0.06987164354569633
-0.4828491132499999	-0.06715088072934854
-0.4827880780937499	-0.06442818526697662
-0.4827270429374999	-0.06170376189113151
-0.4826660077812499	-0.058977829009185544
-0.4826049726249999	-0.05625061356504249
-0.4825439374687499	-0.05352234547089002
-0.4824829023124999	-0.05079325137899659
-0.4824218671562499	-0.048063548384210425
-0.4823608319999999	-0.0453334382309275
-0.4822997968437499	-0.04260310186743327
-0.4822387616874999	-0.03987269450600673
-0.4821777265312499	-0.03714234150837055
-0.4821166913749999	-0.034412135222364595
-0.4820556562187499	-0.031682133002843185
-0.4819946210624999	-0.028952356367260037
-0.4819335859062499	-0.026222791064092903
-0.4818725507499999	-0.023493388162468168
-0.4818115155937499	-0.020764066314684346
-0.4817504804374999	-0.018034714890856174
-0.4816894452812499	-0.015305197689268786
-0.4816284101249999	-0.012575357243616702
-0.4815673749687499	-0.009845019912765969
-0.4815063398124999	-0.007114001815881146
-0.4814453046562499	-0.0043821149163099085
-0.4813842694999999	-0.001649172842283265
-0.4813232343437499	0.001085002738796618
-0.4812621991874999	0.003820575131192078
-0.4812011640312499	0.006557686219517559
-0.4811401288749999	0.009296450848833519
-0.4810790937187499	0.012036951610094979
-0.4810180585624999	0.014779234723574564
-0.4809570234062499	0.017523307400457613
-0.4808959882499999	0.02026913631271383
-0.4808349530937499	0.023016647168750886
-0.4807739179374999	0.02576572556483227
-0.4807128827812499	0.028516218801484937
-0.4806518476249999	0.031267938595239644
-0.4805908124687499	0.03402066518041976
-0.4805297773124999	0.03677415234679546
-0.4804687421562499	0.039528132783646516
-0.4804077069999999	0.04228232425729909
-0.4803466718437499	0.04503643662339432
-0.4802856366874999	0.04779017887109956
-0.4802246015312499	0.05054326598480499
-0.4801635663749999	0.05329542599585289
-0.4801025312187499	0.05604640723700043
-0.4800414960624999	0.05879598515872878
-0.4799804609062499	0.06154396821627054
-0.4799194257499999	0.06429020265486986
-0.4798583905937499	0.06703457605165519
-0.4797973554374999	0.06977701952069326
-0.4797363202812499	0.07251750853260054
-0.4796752851249999	0.07525606247698235
-0.4796142499687499	0.07799274305176067
-0.4795532148124999	0.08072765148908677
-0.4794921796562499	0.08346092472450319
-0.4794311444999999	0.08619273059586129
-0.4793701093437499	0.08892326222884415
-0.4793090741874999	0.09165273172169834
-0.4792480390312499	0.09438136311077336
-0.4791870038749999	0.09710938477170541
-0.4791259687187499	0.09983702170399468
-0.4790649335624999	0.10256448818618795
-0.4790038984062499	0.10529198084599044
-0.4789428632499999	0.10801967214801035
-0.4788818280937499	0.11074770486318564
-0.4788207929374999	0.11347618767783806
-0.4787597577812499	0.11620519176303286
-0.4786987226249999	0.11893474881903614
-0.4786376874687499	0.12166485073807587
-0.4785766523124999	0.12439545023909487
-0.4785156171562499	0.1271264623902518
-0.4784545819999999	0.12985776749030958
-0.4783935468437499	0.13258921532405427
-0.4783325116874999	0.13532063039275824
-0.4782714765312499	0.13805181792457313
-0.4782104413749999	0.14078257066629682
-0.4781494062187499	0.14351267627367537
-0.4780883710624999	0.14624192489884372
-0.4780273359062499	0.14897011648737593
-0.4779663007499999	0.15169706723532675
-0.4779052655937499	0.15442261499055424
-0.4778442304374999	0.15714662364563747
-0.4777831952812499	0.15986898599218194
-0.4777221601249999	0.16258962420641077
-0.4776611249687499	0.16530848747134083
-0.4776000898124999	0.16802554460077573
-0.4775390546562499	0.17074076848988626
-0.4774780194999999	0.17345411601340074
-0.4774169843437499	0.1761655132561845
-0.4773559491874999	0.17887485024522606
-0.4772949140312499	0.18158198223076505
-0.4772338788749999	0.1842867348954526
-0.4771728437187499	0.1869889122721001
-0.4771118085624999	0.18968830584242108
-0.4770507734062499	0.19238470379282818
-0.4769897382499999	0.19507790043868092
-0.4769287030937499	0.19776770568060956
-0.4768676679374999	0.20045395388697737
-0.4768066327812499	0.2031365117119541
-0.4767455976249999	0.20581528437301852
-0.4766845624687499	0.20849022029119907
-0.4766235273124999	0.2111613144219598
-0.4765624921562499	0.21382861017748658
-0.4765014569999999	0.21649219952507542
-0.4764404218437499	0.21915222119438355
-0.4763793866874999	0.2218088572923301
-0.4763183515312499	0.22446232838620914
-0.4762573163749999	0.2271128870061968
-0.4761962812187499	0.2297608101637459
-0.4761352460624999	0.23240639143192734
-0.4760742109062499	0.23504993234147395
-0.4760131757499999	0.2376917330160846
-0.4759521405937499	0.24033208283342986
-0.4758911054374999	0.24297125172644232
-0.4758300702812499	0.24560948191370485
-0.4757690351249999	0.24824698021711225
-0.4757079999687499	0.25088391159001194
-0.4756469648124999	0.2535203938507774
-0.4755859296562499	0.25615649358940273
-0.4755248944999999	0.25879222361688764
-0.4754638593437499	0.26142754203813456
-0.4754028241874999	0.26406235287542573
-0.4753417890312499	0.2666965083405304
-0.4752807538749999	0.269329812644183
-0.4752197187187499	0.27196202692006466
-0.4751586835624999	0.27459287525089204
-0.4750976484062499	0.277222052062019
-0.4750366132499999	0.27984923037086296
-0.4749755780937499	0.28247407012465725
-0.4749145429374999	0.2850962266850504
-0.4748535077812499	0.2877153594969934
-0.4747924726249999	0.2903311404274812
-0.4747314374687499	0.2929432616639872
-0.4746704023124999	0.2955514429835922
-0.4746093671562499	0.29815543788874593
-0.4745483319999999	0.30075503862692304
-0.4744872968437499	0.3033500799264263
-0.4744262616874999	0.3059404412497925
-0.4743652265312499	0.30852604787574295
-0.4743041913749999	0.3111068706649218
-0.4742431562187499	0.3136829242557694
-0.4741821210624999	0.31625426396780004
-0.4741210859062499	0.31882098170337986
-0.4740600507499999	0.3213832009758976
-0.4739990155937499	0.3239410710193237
-0.4739379804374999	0.32649476007161593
-0.4738769452812499	0.32904444835319274
-0.4738159101249999	0.33159032108857966
-0.4737548749687499	0.33413256158252064
-0.4736938398124999	0.33667134453000547
-0.4736328046562499	0.33920682972898125
-0.4735717694999999	0.3417391562355009
-0.4735107343437499	0.34426843724167194
-0.4734496991874999	0.34679475613935723
-0.4733886640312499	0.34931816408225563
-0.4733276288749999	0.35183867871022634
-0.4732665937187499	0.3543562834627769
-0.4732055585624999	0.3568709277050152
-0.4731445234062499	0.35938252807491766
-0.4730834882499999	0.36189097101195367
-0.4730224530937499	0.3643961162837962
-0.4729614179374999	0.36689780111548564
-0.4729003827812499	0.36939584482437704
-0.4728393476249999	0.3718900542117922
-0.4727783124687499	0.37438022931318415
-0.4727172773124999	0.3768661688679252
-0.4726562421562499	0.37934767549468174
-0.4725952069999999	0.3818245607123368
-0.4725341718437499	0.3842966496003076
-0.4724731366874999	0.38676378483236573
-0.4724121015312499	0.3892258299761777
-0.4723510663749999	0.3916826721320268
-0.4722900312187499	0.39413422384865776
-0.4722289960624999	0.3965804238183449
-0.4721679609062499	0.3990212363035124
-0.4721069257499999	0.4014566499288577
-0.4720458905937499	0.4038866760288678
-0.4719848554374999	0.4063113460926077
-0.4719238202812499	0.4087307082051191
-0.4718627851249999	0.41114482299214367
-0.4718017499687499	0.41355375921819004
-0.4717407148124999	0.4159575890929079
-0.4716796796562499	0.4183563836330005
-0.4716186444999999	0.4207502079510111
-0.4715576093437499	0.42313911654739067
-0.4714965741874999	0.42552314931763474
-0.4714355390312499	0.4279023283546854
-0.4713745038749999	0.4302766552032409
-0.4713134687187499	0.4326461089228406
-0.4712524335624999	0.4350106452110682
-0.4711913984062499	0.4373701961138146
-0.4711303632499999	0.4397246703515706
-0.4710693280937499	0.44207395486056084
-0.4710082929374999	0.4444179176122907
-0.4709472577812499	0.4467564111229598
-0.4708862226249999	0.4490892763145557
-0.4708251874687499	0.45141634702872685
-0.4707641523124999	0.4537374550815059
-0.4707031171562499	0.4560524353661542
-0.4706420819999999	0.45836113091924113
-0.4705810468437499	0.46066339777746657
-0.4705200116874999	0.46295910943251944
-0.4704589765312499	0.4652481608902282
-0.4703979413749999	0.46753047209826964
-0.4703369062187499	0.4698059905661917
-0.4702758710624999	0.47207469308404726
-0.4702148359062499	0.47433658634255327
-0.4701538007499999	0.4765917066364785
-0.4700927655937499	0.4788401187129062
-0.4700317304374999	0.48108191334677974
-0.4699706952812499	0.4833172037589127
-0.4699096601249999	0.4855461214667496
-0.4698486249687499	0.48776881174716313
-0.4697875898124999	0.48998542859673944
