Time	Frequency
-0.5000038814062502	0.6765662536767105
-0.4999428462500002	0.6755298266638041
-0.4998818110937502	0.6744848796224343
-0.4998207759375002	0.6734314642438245
-0.4997597407812502	0.6723696163658004
-0.4996987056250002	0.6712993508227829
-0.4996376704687502	0.6702206618605828
-0.4995766353125002	0.6691335287869927
-0.4995156001562502	0.6680379253606615
-0.4994545650000002	0.6669338286607276
-0.4993935298437502	0.6658212262058069
-0.4993324946875002	0.6647001212395526
-0.4992714595312502	0.6635705347744535
-0.4992104243750002	0.662432502852721
-0.4991493892187502	0.6612860689943483
-0.4990883540625002	0.6601312754115733
-0.4990273189062502	0.6589681564258485
-0.4989662837500002	0.6577967349502126
-0.4989052485937502	0.656617021624309
-0.4988442134375002	0.6554290157670679
-0.4987831782812502	0.6542327096655316
-0.4987221431250002	0.653028096042692
-0.4986611079687502	0.6518151721992674
-0.4986000728125002	0.6505939400906824
-0.4985390376562502	0.6493644082172022
-0.4984780025000002	0.6481265935603235
-0.4984169673437502	0.6468805193632393
-0.4983559321875002	0.6456262096778745
-0.4982948970312502	0.6443636841281872
-0.4982338618750002	0.6430929567767046
-0.4981728267187502	0.6418140393335895
-0.4981117915625002	0.64052694507634
-0.4980507564062502	0.6392316900444366
-0.4979897212500002	0.6379282919992624
-0.4979286860937502	0.6366167708242388
-0.4978676509375002	0.6352971485590031
-0.4978066157812502	0.6339694442247882
-0.4977455806250002	0.6326336687151494
-0.4976845454687502	0.6312898264591787
-0.4976235103125002	0.6299379189459718
-0.4975624751562502	0.6285779450716431
-0.4975014400000002	0.6272099022756645
-0.4974404048437502	0.6258337921957425
-0.4973793696875002	0.6244496263089917
-0.4973183345312502	0.6230574264130164
-0.4972572993750002	0.6216572221532599
-0.4971962642187502	0.6202490480061913
-0.4971352290625002	0.6188329391506442
-0.4970741939062502	0.617408927509238
-0.4970131587500002	0.615977038048145
-0.4969521235937502	0.6145372833415551
-0.4968910884375002	0.6130896591990462
-0.4968300532812502	0.6116341473586536
-0.4967690181250002	0.6101707253257023
-0.4967079829687502	0.6086993772454563
-0.4966469478125002	0.6072201024451135
-0.4965859126562502	0.6057329216066759
-0.4965248775000002	0.6042378783907669
-0.4964638423437502	0.602735034805191
-0.4964028071875002	0.6012244599871702
-0.4963417720312502	0.5997062154667366
-0.4962807368750002	0.5981803437959762
-0.4962197017187502	0.5966468620234026
-0.4961586665625002	0.5951057598001088
-0.4960976314062502	0.5935570045260057
-0.4960365962500002	0.5920005519090082
-0.4959755610937502	0.5904363595618065
-0.4959145259375002	0.5888644015480143
-0.4958534907812502	0.5872846793409583
-0.4957924556250002	0.5856972269739724
-0.4957314204687502	0.584102109402257
-0.4956703853125002	0.5824994118990321
-0.4956093501562502	0.5808892225107417
-0.4955483150000002	0.5792716148920869
-0.4954872798437502	0.5776466362379163
-0.4954262446875002	0.5760143001156713
-0.4953652095312502	0.5743745857475951
-0.4953041743750002	0.5727274468927156
-0.4952431392187502	0.5710728290654064
-0.4951821040625002	0.5694106882156178
-0.4951210689062502	0.5677410046321699
-0.4950600337500002	0.5660637908074477
-0.4949989985937502	0.5643790920987388
-0.4949379634375002	0.5626869793819864
-0.4948769282812502	0.5609875359133688
-0.4948158931250002	0.5592808424225991
-0.4947548579687502	0.5575669647874181
-0.4946938228125002	0.5558459448719523
-0.4946327876562502	0.5541177955214184
-0.4945717525000002	0.5523825031439246
-0.4945107173437502	0.5506400361475308
-0.4944496821875002	0.5488903557858681
-0.4943886470312502	0.5471334290444345
-0.4943276118750002	0.5453692404515731
-0.4942665767187502	0.5435977983347542
-0.4942055415625002	0.5418191355569739
-0.4941445064062502	0.5400333049852518
-0.4940834712500002	0.5382403698365749
-0.4940224360937502	0.5364403932000811
-0.4939614009375002	0.5346334297772918
-0.4939003657812502	0.5328195196496367
-0.4938393306250002	0.5309986860462732
-0.4937782954687502	0.5291709386908169
-0.4937172603125002	0.5273362800559683
-0.4936562251562502	0.5254947116665571
-0.4935951900000002	0.5236462376103777
-0.4935341548437502	0.5217908640416469
-0.4934731196875002	0.5199285994873802
-0.4934120845312502	0.518059457879593
-0.4933510493750002	0.5161834594176893
-0.4932900142187502	0.5143006267256317
-0.4932289790625002	0.5124109795530415
-0.4931679439062502	0.5105145343060175
-0.4931069087500002	0.5086113094512197
-0.4930458735937502	0.5067013301027302
-0.4929848384375002	0.5047846302292901
-0.4929238032812502	0.502861255199135
-0.4928627681250002	0.5009312585864437
-0.4928017329687502	0.4989946907196749
-0.4927406978125002	0.4970515891410928
-0.4926796626562502	0.49510197565008207
-0.4926186275000002	0.49314585558132296
-0.4925575923437502	0.4911832173259112
-0.4924965571875002	0.48921403544449654
-0.4924355220312502	0.4872382808848397
-0.4923744868750002	0.48525593434725117
-0.4923134517187502	0.48326699655697625
-0.4922524165625002	0.4812714943182107
-0.4921913814062502	0.4792694816478969
-0.4921303462500002	0.4772610337774667
-0.4920693110937502	0.47524623371194097
-0.4920082759375002	0.473225155802698
-0.4919472407812502	0.47119785280068316
-0.4918862056250002	0.4691643486317239
-0.4918251704687502	0.46712463798646126
-0.4917641353125002	0.46507869405156027
-0.4917031001562502	0.4630264819693259
-0.4916420650000002	0.4609679738454561
-0.4915810298437502	0.45890316098056927
-0.4915199946875002	0.4568320611492338
-0.4914589595312502	0.4547547212468964
-0.4913979243750002	0.45267121221988943
-0.4913368892187502	0.450581614742596
-0.4912758540625002	0.4484860028411689
-0.4912148189062502	0.4463844317206178
-0.4911537837500002	0.4442769304319367
-0.4910927485937502	0.4421635000829334
-0.4910317134375002	0.4400441177907407
-0.4909706782812502	0.4379187464122743
-0.4909096431250002	0.435787349738931
-0.4908486079687502	0.4336499098470196
-0.4907875728125002	0.4315064404028401
-0.4907265376562502	0.42935698982038456
-0.4906655025000002	0.4272016342500191
-0.4906044673437502	0.4250404643380412
-0.4905434321875002	0.42287356933870995
-0.4904823970312502	0.4207010211133517
-0.4904213618750002	0.4185228606035091
-0.4903603267187502	0.4163390930624754
-0.4902992915625002	0.4141496941739133
-0.4902382564062502	0.4119546213716659
-0.4901772212500002	0.40975382836754887
-0.4901161860937502	0.40754728360072395
-0.4900551509375002	0.4053349862340183
-0.4899941157812502	0.40311697226170057
-0.4899330806250002	0.40089331093964437
-0.4898720454687502	0.39866409412573783
-0.4898110103125002	0.396429421044355
-0.4897499751562502	0.3941893818245298
-0.4896889400000002	0.3919440416372662
-0.4896279048437502	0.3896934299380167
-0.4895668696875002	0.38743754142418807
-0.4895058345312502	0.38517634622166563
-0.4894447993750002	0.38290980035678
-0.4893837642187502	0.38063785822146873
-0.4893227290625002	0.37836049207043
-0.4892616939062502	0.37607770770290344
-0.4892006587500002	0.3737895470467121
-0.4891396235937502	0.37149608535709777
-0.4890785884375002	0.36919742439827435
-0.4890175532812502	0.3668936736977209
-0.4889565181250002	0.36458492824390004
-0.4888954829687502	0.36227125620354916
-0.4888344478125002	0.3599526929228491
-0.4887734126562502	0.357629237273458
-0.4887123775000002	0.35530085671385586
-0.4886513423437502	0.35296750313862624
-0.4885903071875002	0.3506291331183072
-0.4885292720312502	0.34828572418318654
-0.4884682368750002	0.34593728382635247
-0.4884072017187502	0.34358385210184955
-0.4883461665625002	0.34122549761015325
-0.4882851314062502	0.33886230860547945
-0.4882240962500002	0.33649438248587726
-0.4881630610937502	0.33412181292134574
-0.4881020259375002	0.3317446750374054
-0.4880409907812502	0.3293630147225676
-0.4879799556250002	0.3269768477771284
-0.4879189204687502	0.3245861676857934
-0.4878578853125002	0.32219095488893723
-0.4877968501562502	0.3197911861277881
-0.4877358150000002	0.31738684702240366
-0.4876747798437502	0.3149779417670419
-0.4876137446875002	0.31256449399403535
-0.4875527095312502	0.31014654468790603
-0.4874916743750002	0.30772415040328466
-0.4874306392187502	0.3052973779813485
-0.4873696040625002	0.30286629647224117
-0.4873085689062502	0.30043097096535787
-0.4872475337500002	0.2979914612464185
-0.4871864985937502	0.2955478220344242
-0.4871254634375002	0.29310009925254776
-0.4870644282812502	0.2906483239179877
-0.4870033931250002	0.2881925092145092
-0.4869423579687502	0.285732653148369
-0.4868813228125002	0.2832687450282631
-0.4868202876562502	0.28080077159954514
-0.4867592525000002	0.27832872160660105
-0.4866982173437502	0.2758525930296283
-0.4866371821875002	0.2733724028378057
-0.4865761470312502	0.2708881933861349
-0.4865151118750002	0.2684000334179429
-0.4864540767187502	0.2659080138629948
-0.4863930415625002	0.26341223858453233
-0.4863320064062502	0.260912809466375
-0.4862709712500002	0.2584098078511919
-0.4862099360937502	0.2559032797564544
-0.4861489009375002	0.25339322956085647
-0.4860878657812502	0.2508796244321651
-0.4860268306250002	0.24836240871946813
-0.4859657954687502	0.24584152264858983
-0.4859047603125002	0.24331692204597927
-0.4858437251562502	0.24078859529102165
-0.4857826900000002	0.23825657292374486
-0.4857216548437502	0.23572092966183328
-0.4856606196875002	0.23318177787043648
-0.4855995845312502	0.23063925137535085
-0.4855385493750002	0.22809348287500605
-0.4854775142187502	0.2255445800683204
-0.4854164790625002	0.22299260665234988
-0.4853554439062502	0.22043757422356117
-0.4852944087500002	0.21787944561982833
-0.4852333735937502	0.21531814775113506
-0.4851723384375002	0.21275359494228738
-0.4851113032812502	0.21018571875681563
-0.4850502681250002	0.20761449375667737
-0.4849892329687502	0.20503995137059577
-0.4849281978125002	0.2024621791973012
-0.4848671626562502	0.19988130681373475
-0.4848061275000002	0.19729747978868728
-0.4847450923437502	0.19471082977465512
-0.4846840571875002	0.19212145234561084
-0.4846230220312502	0.18952939248103606
-0.4845619868750002	0.18693463679427316
-0.4845009517187502	0.18433712227896504
-0.4844399165625002	0.18173676289868282
-0.4843788814062502	0.17913348043271557
-0.4843178462500002	0.17652723069528883
-0.4842568110937502	0.17391802205924026
-0.4841957759375002	0.1713059200810679
-0.4841347407812502	0.16869103711260408
-0.4840737056250002	0.16607351076343577
-0.4840126704687502	0.1634534777741975
-0.4839516353125002	0.160831051753918
-0.4838906001562502	0.15820630696970275
-0.4838295650000002	0.15557926611901546
-0.4837685298437502	0.1529498943145364
-0.4837074946875002	0.15031811017225571
-0.4836464595312502	0.14768381840778289
-0.4835854243750002	0.145046947577042
-0.4835243892187502	0.14240747573681023
-0.4834633540625002	0.13976543989484203
-0.4834023189062502	0.13712092972750967
-0.4833412837500002	0.13447407173463113
-0.4832802485937502	0.13182501049464537
-0.4832192134375002	0.12917388504738211
-0.4831581782812502	0.12652080217511097
-0.4830971431250002	0.1238658151427442
-0.4830361079687502	0.12120891561488374
-0.4829750728125002	0.11855004551475479
-0.4829140376562502	0.11588912416164601
-0.4828530025000002	0.11322607538658115
-0.4827919673437502	0.11056084875541357
-0.4827309321875002	0.10789343621459396
-0.4826698970312502	0.10522388051844388
-0.4826088618750002	0.1025522719396004
-0.4825478267187502	0.0998787342187291
-0.4824867915625002	0.09720340358227986
-0.4824257564062502	0.09452640537794835
-0.4823647212500002	0.09184783257111304
-0.4823036860937502	0.08916773310639202
-0.4822426509375002	0.08648611078113906
-0.4821816157812502	0.0838029357603652
-0.4821205806250002	0.08111816007199264
-0.4820595454687502	0.07843173544509716
-0.4819985103125002	0.07574362963178288
-0.4819374751562502	0.0730538380579748
-0.4818764400000002	0.0703623882561989
-0.4818154048437502	0.06766933738181825
-0.4817543696875002	0.06497476621411151
-0.4816933345312502	0.062278769459815496
-0.4816322993750002	0.0595814421638672
-0.4815712642187502	0.05688286816421718
-0.4815102290625002	0.05418311478240324
-0.4814491939062502	0.05148223072873905
-0.4813881587500002	0.04878024463902281
-0.4813271235937502	0.046077166958642314
-0.4812660884375002	0.04337299512185059
-0.4812050532812502	0.04066771704955072
-0.4811440181250002	0.03796131401201053
-0.4810829829687502	0.03525376810359065
-0.4810219478125002	0.03254507313368808
-0.4809609126562502	0.02983524430578419
-0.4808998775000002	0.027124325211520636
-0.4808388423437502	0.024412391469693543
-0.4807778071875002	0.02169954829294112
-0.4807167720312502	0.018985919408149785
-0.4806557368750002	0.01627162741160829
-0.4805947017187502	0.013556772136855086
-0.4805336665625002	0.010841416685997616
-0.4804726314062502	0.00812558183788451
-0.4804115962500002	0.005409245072340262
-0.4803505610937502	0.0026923469815982645
-0.4802895259375002	-2.519195257074828e-05
-0.4802284907812502	-0.0027434470641805875
-0.4801674556250002	-0.005462463980001846
-0.4801064204687502	-0.008182238964488294
-0.4800453853125002	-0.010902709262532314
-0.4799843501562502	-0.013623754511646236
-0.4799233150000002	-0.01634521015703032
-0.4798622798437502	-0.019066892065918068
-0.4798012446875002	-0.021788626270229143
-0.4797402095312502	-0.02451027717643634
-0.4796791743750002	-0.027231770985049517
-0.4796181392187502	-0.02995310897386855
-0.4795571040625002	-0.03267436592700446
-0.4794960689062502	-0.035395674347340596
-0.4794350337500002	-0.03811719529624711
-0.4793739985937502	-0.04083907838063969
-0.4793129634375002	-0.04356141886149971
-0.4792519282812502	-0.04628422164638485
-0.4791908931250002	-0.049007381963163635
-0.4791298579687502	-0.05173069178445593
-0.4790688228125002	-0.05445387277420855
-0.4790077876562502	-0.05717662495039296
-0.4789467525000002	-0.0598986829497098
-0.4788857173437502	-0.06261987514490808
-0.4788246821875002	-0.06534016761392455
-0.4787636470312502	-0.06805967317642195
-0.4787026118750002	-0.07077862384504753
-0.4786415767187502	-0.07349731669439888
-0.4785805415625002	-0.07621604519231764
-0.4785195064062502	-0.07893503088585908
-0.4784584712500002	-0.0816543702772145
-0.4783974360937502	-0.08437400986649468
-0.4783364009375002	-0.08709375891404253
-0.4782753657812502	-0.089813337684692
-0.4782143306250002	-0.09253245121874468
-0.4781532954687502	-0.09525086886664574
-0.4780922603125002	-0.09796846072688194
-0.4780312251562502	-0.10068515047034762
-0.4779701900000002	-0.10340082866490014
-0.4779091548437502	-0.10611531715233785
-0.4778481196875002	-0.10882840701258632
-0.4777870845312502	-0.1115399245759464
-0.4777260493750002	-0.11424978705015447
-0.4776650142187502	-0.11695803295467332
-0.4776039790625002	-0.1196648190533318
-0.4775429439062502	-0.12237038429653245
-0.4774819087500002	-0.1250749934642498
-0.4774208735937502	-0.12777887575569574
-0.4773598384375002	-0.13048217426140132
-0.4772988032812502	-0.13318491987084544
-0.4772377681250002	-0.13588703022987458
-0.4771767329687502	-0.13858833010326058
-0.4771156978125002	-0.14128859019238205
-0.4770546626562502	-0.1439875738024701
-0.4769936275000002	-0.14668508024884458
-0.4769325923437502	-0.14938097805438383
-0.4768715571875002	-0.15207522116241584
-0.4768105220312502	-0.1547678445774839
-0.4767494868750002	-0.1574589425733296
-0.4766884517187502	-0.16014863788321856
-0.4766274165625002	-0.1628370502310392
-0.4765663814062502	-0.16552426834522554
-0.4765053462500002	-0.1682103300920646
-0.4764443110937502	-0.17089521709094332
-0.4763832759375002	-0.17357886039582493
-0.4763222407812502	-0.17626115060647013
-0.4762612056250002	-0.17894195612897512
-0.4762001704687502	-0.18162114791095915
-0.4761391353125002	-0.1842986190329728
-0.4760781001562502	-0.1869742963348326
-0.4760170650000002	-0.18964814524795257
-0.4759560298437502	-0.19232016561707518
-0.4758949946875002	-0.1949903835657761
-0.4758339595312502	-0.1976588420975761
-0.4757729243750002	-0.20032558593229152
-0.4757118892187502	-0.20299064709474024
-0.4756508540625002	-0.2056540381908133
-0.4755898189062502	-0.20831574847071047
-0.4755287837500002	-0.21097574280300754
-0.4754677485937502	-0.21363396676534055
-0.4754067134375002	-0.21629035236437605
-0.4753456782812502	-0.21894482274733815
-0.4752846431250002	-0.22159730040334166
-0.4752236079687502	-0.22424771548476818
-0.4751625728125002	-0.22689600985552272
-0.4751015376562502	-0.2295421382698646
-0.4750405025000002	-0.23218606700915892
-0.4749794673437502	-0.23482777092040158
-0.4749184321875002	-0.23746723136295575
-0.4748573970312502	-0.24010443548325555
-0.4747963618750002	-0.24273937456109815
-0.4747353267187502	-0.2453720387362909
-0.4746742915625002	-0.24800241070587653
-0.4746132564062502	-0.25063046427434205
-0.4745522212500002	-0.2532561664103127
-0.4744911860937502	-0.2558794772648524
-0.4744301509375002	-0.2585003498360977
-0.4743691157812502	-0.2611187317979869
-0.4743080806250002	-0.26373456746327484
-0.4742470454687502	-0.26634780030046173
-0.4741860103125002	-0.2689583758258764
-0.4741249751562502	-0.27156624323494005
-0.4740639400000002	-0.27417135778424656
-0.4740029048437502	-0.27677368379877215
-0.4739418696875002	-0.27937319350711043
-0.4738808345312502	-0.28196986205569013
-0.4738197993750002	-0.28456366445012904
-0.4737587642187502	-0.28715457404696787
-0.4736977290625002	-0.28974255947447625
-0.4736366939062502	-0.29232758178233
-0.4735756587500002	-0.29490959218582774
-0.4735146235937502	-0.2974885304151133
-0.4734535884375002	-0.30006432780127734
-0.4733925532812502	-0.3026369147774456
-0.4733315181250002	-0.3052062273326496
-0.4732704829687502	-0.3077722101474209
-0.4732094478125002	-0.3103348159067949
-0.4731484126562502	-0.31289400238019843
-0.4730873775000002	-0.3154497317368551
-0.4730263423437502	-0.3180019703952294
-0.4729653071875002	-0.3205506856616095
-0.4729042720312502	-0.32309584352158693
-0.4728432368750002	-0.32563740919711825
-0.4727822017187502	-0.32817534711288493
-0.4727211665625002	-0.3307096224367402
-0.4726601314062502	-0.33324020230033286
-0.4725990962500002	-0.33576705110382504
-0.4725380610937502	-0.3382901251296651
-0.4724770259375002	-0.34080937173375087
-0.4724159907812502	-0.3433247281433223
-0.4723549556250002	-0.34583611924756275
-0.4722939204687502	-0.3483434616357455
-0.4722328853125002	-0.3508466726806884
-0.4721718501562502	-0.35334567781697407
-0.4721108150000002	-0.35584041641374625
-0.4720497798437502	-0.3583308460264187
-0.4719887446875002	-0.3608169396449084
-0.4719277095312502	-0.36329867637482643
-0.4718666743750002	-0.36577603230002925
-0.4718056392187502	-0.3682489753827846
-0.4717446040625002	-0.37071746455677407
-0.4716835689062502	-0.37318145149230025
-0.4716225337500002	-0.3756408843450939
-0.4715614985937502	-0.3780957140636172
-0.4715004634375002	-0.38054590000809246
-0.4714394282812502	-0.38299141018046184
-0.4713783931250002	-0.38543221620471496
-0.4713173579687502	-0.38786828689185676
-0.4712563228125002	-0.3902995823798578
-0.4711952876562502	-0.392726050140635
-0.4711342525000002	-0.3951476272471881
-0.4710732173437502	-0.39756424921812894
-0.4710121821875002	-0.39997585808256914
-0.4709511470312502	-0.40238240577915124
-0.4708901118750002	-0.40478385594119887
-0.4708290767187502	-0.4071801830946563
-0.4707680415625002	-0.4095713666474335
-0.4707070064062502	-0.4119573853882671
-0.4706459712500002	-0.4143382160250377
-0.4705849360937502	-0.41671383173733667
-0.4705239009375002	-0.41908420089251996
-0.4704628657812502	-0.42144928776328167
-0.4704018306250002	-0.4238090532154756
-0.4703407954687502	-0.426163455385541
-0.4702797603125002	-0.4285124513281179
-0.4702187251562502	-0.4308559981768912
-0.4701576900000002	-0.43319405325891297
-0.4700966548437502	-0.4355265748719329
-0.4700356196875002	-0.4378535256246053
-0.4699745845312502	-0.44017487691257057
-0.4699135493750002	-0.44249061162498937
-0.4698525142187502	-0.4448007260152412
-0.4697914790625002	-0.4471052303361943
-0.4697304439062502	-0.4494041436849087
-0.4696694087500002	-0.45169748364938483
-0.4696083735937502	-0.45398525566185705
-0.4695473384375002	-0.45626744324232055
-0.4694863032812502	-0.4585440008674859
