Time	Frequency
-0.5000476017187498	0.8209966835940122
-0.49998656656249985	0.8214958582562464
-0.49992553140624985	0.8219801302473733
-0.49986449624999985	0.8224494827410592
-0.49980346109374985	0.8229039075535648
-0.49974242593749985	0.8233434052064065
-0.49968139078124985	0.823767984841189
-0.49962035562499985	0.8241776640429683
-0.49955932046874985	0.8245724685520484
-0.49949828531249985	0.8249524317664042
-0.49943725015624985	0.8253175940803146
-0.49937621499999985	0.8256680021394378
-0.49931517984374985	0.8260037079804154
-0.49925414468749985	0.8263247680913273
-0.49919310953124985	0.826631242412623
-0.49913207437499985	0.8269231932209693
-0.49907103921874985	0.8272006839648861
-0.49901000406249985	0.8274637780917717
-0.49894896890624985	0.8277125378009524
-0.49888793374999985	0.8279470227697537
-0.49882689859374985	0.8281672889658896
-0.49876586343749985	0.828373387599964
-0.49870482828124985	0.8285653641676927
-0.49864379312499985	0.828743257480481
-0.49858275796874985	0.8289070987419523
-0.49852172281249985	0.8290569108067665
-0.49846068765624985	0.8291927076003837
-0.49839965249999985	0.8293144936659428
-0.49833861734374985	0.829422263920468
-0.49827758218749985	0.8295160036308197
-0.49821654703124985	0.829595688504868
-0.49815551187499985	0.8296612848778135
-0.49809447671874985	0.8297127500709771
-0.49803344156249985	0.8297500329387221
-0.49797240640624985	0.8297730745983548
-0.49791137124999985	0.8297818093916884
-0.49785033609374985	0.8297761660307705
-0.49778930093749985	0.8297560687397546
-0.49772826578124985	0.8297214383597005
-0.49766723062499985	0.8296721936108808
-0.49760619546874985	0.8296082525401299
-0.49754516031249985	0.8295295340017979
-0.49748412515624985	0.8294359591191058
-0.49742308999999985	0.829327452640274
-0.49736205484374985	0.8292039441199656
-0.49730101968749985	0.8290653690603222
-0.49723998453124985	0.828911670111619
-0.49717894937499985	0.8287427982153455
-0.49711791421874985	0.8285587135509747
-0.49705687906249985	0.828359386286528
-0.49699584390624985	0.8281447971308338
-0.49693480874999985	0.8279149376764331
-0.49687377359374985	0.827669810596784
-0.49681273843749985	0.8274094297058955
-0.49675170328124985	0.8271338197687496
-0.49669066812499985	0.8268430159819322
-0.49662963296874985	0.8265370632529946
-0.49656859781249985	0.8262160153709293
-0.49650756265624985	0.8258799339964651
-0.49644652749999985	0.8255288875515987
-0.49638549234374985	0.8251629500700689
-0.49632445718749985	0.8247821999053213
-0.49626342203124985	0.824386718283783
-0.49620238687499985	0.8239765877439085
-0.49614135171874985	0.823551890516062
-0.49608031656249985	0.8231127069100102
-0.49601928140624985	0.8226591137729227
-0.49595824624999985	0.8221911831094748
-0.49589721109374985	0.8217089807754941
-0.49583617593749985	0.8212125651813881
-0.49577514078124985	0.8207019862127561
-0.49571410562499985	0.8201772844736693
-0.49565307046874985	0.8196384907326243
-0.49559203531249985	0.8190856253977357
-0.49553100015624985	0.8185186981239321
-0.49546996499999985	0.8179377078625921
-0.49540892984374985	0.8173426432033218
-0.49534789468749985	0.8167334827234016
-0.49528685953124985	0.8161101955037422
-0.49522582437499985	0.8154727419581619
-0.49516478921874985	0.8148210748851972
-0.49510375406249985	0.8141551406478286
-0.49504271890624985	0.8134748805241899
-0.49498168374999985	0.8127802322740979
-0.49492064859374985	0.8120711316315782
-0.49485961343749985	0.8113475136622621
-0.49479857828124985	0.8106093144097196
-0.49473754312499985	0.8098564726892911
-0.49467650796874985	0.8090889315989851
-0.49461547281249985	0.8083066398524077
-0.49455443765624985	0.8075095530648808
-0.49449340249999985	0.8066976349783898
-0.49443236734374985	0.8058708585873232
-0.49437133218749985	0.8050292069660305
-0.49431029703124985	0.8041726736619158
-0.49424926187499985	0.8033012628801792
-0.49418822671874985	0.8024149897815155
-0.49412719156249985	0.8015138806895756
-0.49406615640624985	0.8005979727764271
-0.49400512124999985	0.7996673133539863
-0.49394408609374985	0.7987219591508322
-0.49388305093749985	0.797761975462343
-0.49382201578124985	0.7967874348828611
-0.49376098062499985	0.7957984157918717
-0.49369994546874985	0.7947950008692269
-0.49363891031249985	0.7937772755966047
-0.49357787515624985	0.7927453267318088
-0.49351683999999985	0.7916992408067869
-0.49345580484374985	0.7906391025185273
-0.49339476968749985	0.7895649930544016
-0.49333373453124985	0.7884769886676545
-0.49327269937499985	0.7873751595577625
-0.49321166421874985	0.7862595687321068
-0.49315062906249985	0.7851302706905547
-0.49308959390624985	0.7839873102829291
-0.49302855874999985	0.7828307220773587
-0.49296752359374985	0.7816605300746395
-0.49290648843749985	0.7804767475559263
-0.49284545328124985	0.7792793772140886
-0.49278441812499985	0.7780684116084623
-0.49272338296874985	0.7768438336299031
-0.49266234781249985	0.7756056169422348
-0.49260131265624985	0.7743537267669878
-0.49254027749999985	0.7730881211176234
-0.49247924234374985	0.771808752331669
-0.49241820718749985	0.7705155687650439
-0.49235717203124985	0.7692085164202267
-0.49229613687499985	0.7678875404031221
-0.49223510171874985	0.7665525863118728
-0.49217406656249985	0.7652036018242221
-0.49211303140624985	0.7638405385653833
-0.49205199624999985	0.7624633537937471
-0.49199096109374985	0.7610720117942702
-0.49192992593749985	0.7596664852453436
-0.49186889078124985	0.7582467564106002
-0.49180785562499985	0.7568128180942045
-0.49174682046874985	0.7553646744851124
-0.49168578531249985	0.7539023417325673
-0.49162475015624985	0.7524258481392164
-0.49156371499999985	0.7509352341043178
-0.49150267984374985	0.7494305518290048
-0.49144164468749985	0.7479118647471554
-0.49138060953124985	0.7463792467632571
-0.49131957437499985	0.744832781277797
-0.49125853921874985	0.7432725600217324
-0.49119750406249985	0.7416986817379723
-0.49113646890624985	0.7401112505618138
-0.49107543374999985	0.7385103742100031
-0.49101439859374985	0.7368961622262595
-0.49095336343749985	0.7352687242396997
-0.49089232828124985	0.7336281682009294
-0.49083129312499985	0.7319745984827929
-0.49077025796874985	0.7303081138218183
-0.49070922281249985	0.7286288055962254
-0.49064818765624985	0.7269367565959032
-0.49058715249999985	0.7252320398035655
-0.49052611734374985	0.7235147171640296
-0.49046508218749985	0.7217848387655896
-0.49040404703124985	0.7200424424070586
-0.49034301187499985	0.7182875533711306
-0.49028197671874985	0.7165201844887529
-0.49022094156249985	0.7147403363197926
-0.49015990640624985	0.7129479973655137
-0.49009887124999985	0.7111431447285795
-0.49003783609374985	0.7093257453425397
-0.48997680093749985	0.7074957575803887
-0.48991576578124985	0.7056531330031989
-0.48985473062499985	0.7037978180299241
-0.48979369546874985	0.7019297556409131
-0.48973266031249985	0.7000488871826647
-0.48967162515624985	0.6981551543153608
-0.48961058999999985	0.6962485010217329
-0.48954955484374985	0.6943288753654343
-0.48948851968749985	0.6923962311994173
-0.48942748453124985	0.6904505299952429
-0.48936644937499985	0.6884917424378533
-0.48930541421874985	0.6865198496004363
-0.48924437906249985	0.684534843815739
-0.48918334390624985	0.6825367294900311
-0.48912230874999985	0.6805255239219229
-0.48906127359374985	0.6785012577662786
-0.48900023843749985	0.67646397498556
-0.48893920328124985	0.6744137324764908
-0.48887816812499985	0.6723505993238176
-0.48881713296874985	0.6702746558032597
-0.48875609781249985	0.6681859925532064
-0.48869506265624985	0.6660847097553919
-0.48863402749999985	0.6639709157765926
-0.48857299234374985	0.6618447252577087
-0.48851195718749985	0.6597062571669707
-0.48845092203124985	0.6575556330517982
-0.48838988687499985	0.6553929752259696
-0.48832885171874985	0.6532184049389288
-0.48826781656249985	0.6510320407537203
-0.48820678140624985	0.648833996829656
-0.48814574624999985	0.6466243811061174
-0.48808471109374985	0.6444032939048232
-0.48802367593749985	0.6421708268289734
-0.48796264078124985	0.6399270615429749
-0.48790160562499985	0.6376720687012999
-0.48784057046874985	0.6354059074548176
-0.48777953531249985	0.63312862522727
-0.48771850015624985	0.6308402572901421
-0.48765746499999985	0.6285408265954822
-0.48759642984374985	0.6262303443807143
-0.48753539468749985	0.6239088110794646
-0.48747435953124985	0.6215762171771572
-0.48741332437499985	0.6192325442318752
-0.48735228921874985	0.6168777661361932
-0.48729125406249985	0.6145118505836022
-0.48723021890624985	0.6121347605986921
-0.48716918374999985	0.6097464560625631
-0.48710814859374985	0.6073468955374852
-0.48704711343749985	0.6049360382092522
-0.48698607828124985	0.6025138455360104
-0.48692504312499985	0.6000802828849136
-0.48686400796874985	0.5976353212817149
-0.48680297281249985	0.5951789390240106
-0.48674193765624985	0.5927111230601823
-0.48668090249999985	0.5902318700348477
-0.48661986734374985	0.5877411870369045
-0.48655883218749985	0.5852390922045773
-0.48649779703124985	0.582725615283246
-0.48643676187499985	0.5802007980400266
-0.48637572671874985	0.5776646942368442
-0.48631469156249985	0.575117369258397
-0.48625365640624985	0.572558899612436
-0.48619262124999985	0.5699893720931205
-0.48613158609374985	0.5674088826781802
-0.48607055093749985	0.5648175354336981
-0.48600951578124985	0.5622154412315286
-0.48594848062499985	0.5596027162340068
-0.48588744546874985	0.5569794805148338
-0.48582641031249985	0.554345856709249
-0.48576537515624985	0.5517019681386212
-0.48570433999999985	0.5490479365942356
-0.48564330484374985	0.546383880675544
-0.48558226968749985	0.5437099147496164
-0.48552123453124985	0.5410261477359583
-0.48546019937499985	0.5383326816582573
-0.48539916421874985	0.5356296105100099
-0.48533812906249985	0.5329170192596794
-0.48527709390624985	0.5301949826881761
-0.48521605874999985	0.5274635645884068
-0.48515502359374985	0.5247228176675652
-0.48509398843749985	0.5219727837140219
-0.48503295328124985	0.5192134936017572
-0.48497191812499985	0.5164449671608422
-0.48491088296874985	0.5136672133585708
-0.48484984781249985	0.5108802310495036
-0.48478881265624985	0.5080840100320825
-0.48472777749999985	0.5052785322564246
-0.48466674234374985	0.5024637732686738
-0.48460570718749985	0.4996397036977475
-0.48454467203124985	0.4968062906890831
-0.48448363687499985	0.49396349966060316
-0.48442260171874985	0.49111129637245254
-0.48436156656249985	0.48824964877083
-0.48430053140624985	0.485378528480635
-0.48423949624999985	0.48249791235760103
-0.48417846109374985	0.47960778425496503
-0.48411742593749985	0.47670813665461065
-0.48405639078124985	0.47379897194493614
-0.48399535562499985	0.47088030338954423
-0.48393432046874985	0.4679521558362338
-0.48387328531249985	0.4650145664378631
-0.48381225015624985	0.4620675853426199
-0.48375121499999985	0.4591112757308955
-0.48369017984374985	0.45614571333686593
-0.48362914468749985	0.4531709861810047
-0.48356810953124985	0.45018719438952587
-0.48350707437499985	0.4471944495894505
-0.48344603921874985	0.44419287376918565
-0.48338500406249985	0.44118259777866115
-0.48332396890624985	0.43816375963340487
-0.48326293374999985	0.4351365026329373
-0.48320189859374985	0.43210097336774816
-0.48314086343749985	0.42905731968356464
-0.48307982828124985	0.42600568874233163
-0.48301879312499985	0.4229462253014558
-0.48295775796874985	0.41987906991376606
-0.48289672281249985	0.41680435699011664
-0.48283568765624985	0.4137222129981481
-0.48277465249999985	0.4106327546852555
-0.48271361734374985	0.4075360875082166
-0.48265258218749985	0.4044323047190332
-0.48259154703124985	0.4013214866668274
-0.48253051187499985	0.3982036999193476
-0.48246947671874985	0.39507899671003943
-0.48240844156249985	0.3919474149743696
-0.48234740640624985	0.3888089786396925
-0.48228637124999985	0.3856636979394305
-0.48222533609374985	0.3825115699774494
-0.48216430093749985	0.37935257990468557
-0.48210326578124985	0.3761867025002172
-0.48204223062499985	0.3730139035547105
-0.48198119546874985	0.36983414124631064
-0.48192016031249985	0.3666473681562433
-0.48185912515624985	0.363453533556994
-0.48179808999999985	0.3602525853971603
-0.48173705484374985	0.3570444721665792
-0.48167601968749985	0.3538291447361963
-0.48161498453124985	0.35060655832298526
-0.48155394937499985	0.34737667483426926
-0.48149291421874985	0.34413946519541905
-0.48143187906249985	0.34089491117279275
-0.48137084390624985	0.33764300670739805
-0.48130980874999985	0.3343837590715936
-0.48124877359374985	0.33111718998963574
-0.48118773843749985	0.3278433364302453
-0.48112670328124985	0.32456225091346996
-0.48106566812499985	0.3212740016264282
-0.48100463296874985	0.317978672502627
-0.48094359781249985	0.31467636298157214
-0.48088256265624985	0.31136718736252217
-0.48082152749999985	0.30805127395865683
-0.48076049234374985	0.30472876383800984
-0.48069945718749985	0.3013998090107086
-0.48063842203124985	0.2980645705239347
-0.48057738687499985	0.2947232165961656
-0.48051635171874985	0.29137592058896944
-0.48045531656249985	0.2880228588729201
-0.48039428140624985	0.28466420847397084
-0.48033324624999985	0.28130014455684266
-0.48027221109374985	0.27793083817919667
-0.48021117593749985	0.2745564541881125
-0.48015014078124985	0.2711771490938788
-0.48008910562499985	0.2677930692353498
-0.48002807046874985	0.26440434919397227
-0.47996703531249985	0.261011110198516
-0.47990600015624985	0.257613458653884
-0.47984496499999985	0.25421148511188957
-0.47978392984374985	0.25080526370812883
-0.47972289468749985	0.24739485191228555
-0.47966185953124985	0.2439802904976292
-0.47960082437499985	0.24056160374998806
-0.47953978921874985	0.23713880014295655
-0.47947875406249985	0.23371187341560004
-0.47941771890624985	0.23028080391358333
-0.47935668374999985	0.2268455603065199
-0.47929564859374985	0.22340610131395636
-0.47923461343749985	0.2199623774245247
-0.47917357828124985	0.21651433323205582
-0.47911254312499985	0.2130619101646377
-0.47905150796874985	0.20960504899050938
-0.47899047281249985	0.2061436919817631
-0.47892943765624985	0.2026777850129052
-0.47886840249999985	0.1992072799677692
-0.47880736734374985	0.19573213722222102
-0.47874633218749985	0.19225232773146145
-0.47868529703124985	0.18876783471393663
-0.47862426187499985	0.18527865500899576
-0.47856322671874985	0.18178480032393773
-0.47850219156249985	0.17828629849762256
-0.47844115640624985	0.1747831942085567
-0.47838012124999985	0.17127554899597483
-0.47831908609374985	0.16776344124819692
-0.47825805093749985	0.16424696600349908
-0.47819701578124985	0.1607262341026895
-0.47813598062499985	0.15720137115882402
-0.47807494546874985	0.15367251661407322
-0.47801391031249985	0.15013982246241767
-0.47795287515624985	0.14660345141510908
-0.47789183999999985	0.14306357461661923
-0.47783080484374985	0.13952036922887442
-0.47776976968749985	0.1359740161091631
-0.47770873453124985	0.13242469745641858
-0.47764769937499985	0.12887259449916022
-0.47758666421874985	0.1253178853753218
-0.47752562906249985	0.1217607428896385
-0.47746459390624985	0.11820133214435075
-0.47740355874999985	0.11463980852361214
-0.47734252359374985	0.11107631593813869
-0.47728148843749985	0.10751098513307848
-0.47722045328124985	0.10394393231701601
-0.47715941812499985	0.10037525815587488
-0.47709838296874985	0.09680504705514932
-0.47703734781249985	0.09323336677231701
-0.47697631265624985	0.08966026838943862
-0.47691527749999985	0.08608578662973801
-0.47685424234374985	0.08250994050868084
-0.47679320718749985	0.07893273433605535
-0.47673217203124985	0.0753541589817057
-0.47667113687499985	0.07177419341438541
-0.47661010171874985	0.06819280657083497
-0.47654906656249985	0.06460995945472296
-0.47648803140624985	0.06102560736650739
-0.47642699624999985	0.057439702072999026
-0.47636596109374985	0.05385219394646599
-0.47630492593749985	0.050263034335835385
-0.47624389078124985	0.04667217795464805
-0.47618285562499985	0.04307958510366277
-0.47612182046874985	0.039485223918384556
-0.47606078531249985	0.03588907256455066
-0.47599975015624985	0.03229112117387375
-0.47593871499999985	0.028691373378293583
-0.47587767984374985	0.025089847379016518
-0.47581664468749985	0.021486576915648863
-0.47575560953124985	0.017881612248051706
-0.47569457437499985	0.014275020524342473
-0.47563353921874985	0.010666885596082046
-0.47557250406249985	0.007057307823778818
-0.47551146890624985	0.003446403517237238
-0.47545043374999985	-0.00016569616212206039
-0.47538939859374985	-0.0037788464536979535
-0.47532836343749985	-0.007392890452160661
-0.47526732828124985	-0.011007660836616282
-0.47520629312499985	-0.014622981851201013
-0.47514525796874985	-0.018238671640902284
-0.47508422281249985	-0.021854544753776302
-0.47502318765624985	-0.025470414678133272
-0.47496215249999985	-0.02908609641096927
-0.47490111734374985	-0.03270140883981908
-0.47484008218749985	-0.036316177031901535
-0.47477904703124985	-0.03993023450960591
-0.47471801187499985	-0.043543425308069886
-0.47465697671874985	-0.04715560596183163
-0.47459594156249985	-0.05076664743573553
-0.47453490640624985	-0.054376436445362955
-0.47447387124999985	-0.057984875956947776
-0.47441283609374985	-0.06159188554804237
-0.47435180093749985	-0.06519740215729891
-0.47429076578124985	-0.06880138064707551
-0.47422973062499985	-0.07240379326695566
-0.47416869546874985	-0.07600462826077245
-0.47410766031249985	-0.07960388870415179
-0.47404662515624985	-0.08320159153435569
-0.47398558999999985	-0.0867977659826853
-0.47392455484374985	-0.09039245157520413
-0.47386351968749985	-0.09398569605853518
-0.47380248453124985	-0.0975775530294982
-0.47374144937499985	-0.10116807940228884
-0.47368041421874985	-0.10475733304233918
-0.47361937906249985	-0.10834537022618164
-0.47355834390624985	-0.11193224285203188
-0.47349730874999985	-0.11551799606794386
-0.47343627359374985	-0.11910266632632875
-0.47337523843749985	-0.12268627935803998
-0.47331420328124985	-0.12626884814467523
-0.47325316812499985	-0.12985037129506455
-0.47319213296874985	-0.13343083191612148
-0.47313109781249985	-0.13701019661800873
-0.47307006265624985	-0.14058841466283828
-0.47300902749999985	-0.14416541757649565
-0.47294799234374985	-0.14774111905758497
-0.47288695718749985	-0.15131541528299963
-0.47282592203124985	-0.1548881859780574
-0.47276488687499985	-0.15845929597277778
-0.47270385171874985	-0.16202859696984076
-0.47264281656249985	-0.16559592955286423
-0.47258178140624985	-0.16916112507457964
-0.47252074624999985	-0.17272400744488633
-0.47245971109374985	-0.17628439562283843
-0.47239867593749985	-0.17984210671692571
-0.47233764078124985	-0.18339695862952815
-0.47227660562499985	-0.18694877215758232
-0.47221557046874985	-0.1904973733888386
-0.47215453531249985	-0.19404259638879773
-0.47209350015624985	-0.1975842853933651
-0.47203246499999985	-0.20112229649877264
-0.47197142984374985	-0.20465649929328658
-0.47191039468749985	-0.20818677827405074
-0.47184935953124985	-0.2117130336923696
-0.47178832437499985	-0.21523518164564995
-0.47172728921874985	-0.21875315362926745
-0.47166625406249985	-0.2222668960180009
-0.47160521890624985	-0.22577636920364566
-0.47154418374999985	-0.2292815456989198
-0.47148314859374985	-0.23278240738877845
-0.47142211343749985	-0.2362789420554735
-0.47136107828124985	-0.23977113798792984
-0.47130004312499985	-0.24325897695071758
-0.47123900796874985	-0.24674242935941645
-0.47117797281249985	-0.25022145440017235
-0.47111693765624985	-0.25369600325022873
-0.47105590249999985	-0.2571660224894257
-0.47099486734374985	-0.2606314567645811
-0.47093383218749985	-0.2640922511692377
-0.47087279703124985	-0.2675483537042314
-0.47081176187499985	-0.27099971730988365
-0.47075072671874985	-0.2744463011563834
-0.47068969156249985	-0.2778880716696418
-0.47062865640624985	-0.2813250033639413
-0.47056762124999985	-0.2847570791330422
-0.47050658609374985	-0.2881842900425665
-0.47044555093749985	-0.2916066348224349
-0.47038451578124985	-0.2950241190748483
-0.47032348062499985	-0.29843675395130626
-0.47026244546874985	-0.30184455434263524
-0.47020141031249985	-0.3052475371581508
-0.47014037515624985	-0.3086457196299271
-0.47007933999999985	-0.31203911726480965
-0.47001830484374985	-0.3154277417932253
