Time	Frequency
-0.50005144646875	-0.6334076225748215
-0.4999904113125	-0.6349170372997338
-0.49992937615625	-0.6364193693445764
-0.499868341	-0.6379146250648949
-0.49980730584375	-0.6394027868379869
-0.4997462706875	-0.640883812227199
-0.49968523553125	-0.6423576340156459
-0.499624200375	-0.6438241614351313
-0.49956316521875	-0.6452832822599645
-0.4995021300625	-0.646734865535442
-0.49944109490625	-0.648178765268621
-0.49938005975	-0.6496148251427923
-0.49931902459375	-0.6510428835460429
-0.4992579894375	-0.652462778457784
-0.49919695428125	-0.6538743525217534
-0.499135919125	-0.6552774582771594
-0.49907488396875	-0.6566719630771924
-0.4990138488125	-0.6580577535841069
-0.49895281365625	-0.6594347396662011
-0.4988917785	-0.6608028573884476
-0.49883074334375	-0.6621620712029247
-0.4987697081875	-0.6635123754631916
-0.49870867303125	-0.6648537948757666
-0.498647637875	-0.6661863835782728
-0.49858660271875	-0.6675102230429204
-0.4985255675625	-0.6688254189281347
-0.49846453240625	-0.6701320969811103
-0.49840349725	-0.6714303983935126
-0.49834246209375	-0.6727204747605703
-0.4982814269375	-0.6740024823333417
-0.49822039178125	-0.6752765756812371
-0.498159356625	-0.6765429014518487
-0.49809832146875	-0.6778015923716142
-0.4980372863125	-0.6790527614868554
-0.49797625115625	-0.6802964972469853
-0.497915216	-0.6815328595594523
-0.49785418084375	-0.682761876395717
-0.4977931456875	-0.6839835411142657
-0.49773211053125	-0.6851978110781785
-0.497671075375	-0.6864046078057892
-0.49761004021875	-0.6876038184756101
-0.4975490050625	-0.6887952985292044
-0.49748796990625	-0.6899788753697473
-0.49742693475	-0.691154353166061
-0.49736589959375	-0.6923215184864581
-0.4973048644375	-0.6934801465834785
-0.49724382928125	-0.6946300082503265
-0.497182794125	-0.6957708770176186
-0.49712175896875	-0.6969025364291336
-0.4970607238125	-0.6980247869847448
-0.49699968865625	-0.6991374524523912
-0.4969386535	-0.7002403855277217
-0.49687761834375	-0.7013334726497019
-0.4968165831875	-0.7024166378226981
-0.49675554803125	-0.7034898453714621
-0.496694512875	-0.7045531012930912
-0.49663347771875	-0.7056064530466761
-0.4965724425625	-0.706649987971057
-0.49651140740625	-0.7076838304173415
-0.49645037225	-0.7087081376109146
-0.49638933709375	-0.7097230944042583
-0.4963283019375	-0.7107289070717998
-0.49626726678125	-0.711725796267634
-0.496206231625	-0.7127139893561107
-0.49614519646875	-0.713693712359841
-0.4960841613125	-0.714665181833216
-0.49602312615625	-0.7156285970378922
-0.495962091	-0.716584132672672
-0.49590105584375	-0.7175319323243355
-0.4958400206875	-0.7184721028722628
-0.49577898553125	-0.7194047100664757
-0.495717950375	-0.7203297754164151
-0.49565691521875	-0.7212472744895084
-0.4955958800625	-0.7221571367473525
-0.49553484490625	-0.7230592469745742
-0.49547380975	-0.7239534481831138
-0.49541277459375	-0.7248395458791157
-0.4953517394375	-0.7257173136668106
-0.49529070428125	-0.7265865000610019
-0.495229669125	-0.727446836174753
-0.49516863396875	-0.7282980439488469
-0.4951075988125	-0.7291398447215394
-0.49504656365625	-0.7299719679090828
-0.4949855285	-0.7307941594860792
-0.49492449334375	-0.7316061900001921
-0.4948634581875	-0.7324078619130691
-0.49480242303125	-0.7331990160173317
-0.494741387875	-0.7339795366338822
-0.49468035271875	-0.7347493553890422
-0.4946193175625	-0.7355084534983719
-0.49455828240625	-0.7362568624547499
-0.49449724725	-0.7369946630140762
-0.49443621209375	-0.7377219825140854
-0.4943751769375	-0.7384389906319345
-0.49431414178125	-0.7391458936738073
-0.494253106625	-0.7398429275689344
-0.49419207146875	-0.7405303498455967
-0.4941310363125	-0.7412084308486095
-0.49407000115625	-0.7418774444279411
-0.494008966	-0.7425376584113534
-0.49394793084375	-0.7431893252353861
-0.4938868956875	-0.7438326730513533
-0.49382586053125	-0.7444678975741111
-0.493764825375	-0.7450951549700539
-0.49370379021875	-0.7457145560362216
-0.4936427550625	-0.7463261618446183
-0.49358171990625	-0.7469299810133782
-0.49352068475	-0.7475259686793211
-0.49345964959375	-0.7481140272016653
-0.4933986144375	-0.7486940086502761
-0.49333757928125	-0.7492657190491767
-0.493276544125	-0.7498289242368138
-0.49321550896875	-0.7503833571033691
-0.4931544738125	-0.7509287259878678
-0.49309343865625	-0.7514647240728171
-0.4930324035	-0.7519910394165293
-0.49297136834375	-0.7525073651501991
-0.4929103331875	-0.7530134095565877
-0.49284929803125	-0.7535089057882459
-0.492788262875	-0.7539936208259039
-0.49272722771875	-0.7544673633528636
-0.4926661925625	-0.7549299903841611
-0.49260515740625	-0.7553814123792187
-0.49254412225	-0.755821596504362
-0.49248308709375	-0.7562505679789426
-0.4924220519375	-0.7566684095689896
-0.49236101678125	-0.7570752591854174
-0.492299981625	-0.7574713056099037
-0.49223894646875	-0.7578567824508351
-0.4921779113125	-0.7582319605143576
-0.49211687615625	-0.7585971389203773
-0.492055841	-0.7589526352228729
-0.49199480584375	-0.7592987747529224
-0.4919337706875	-0.7596358795019682
-0.49187273553125	-0.7599642568898669
-0.491811700375	-0.7602841888180244
-0.49175066521875	-0.7605959214654262
-0.4916896300625	-0.7608996561933364
-0.49162859490625	-0.7611955418385098
-0.49156755975	-0.7614836687204535
-0.49150652459375	-0.7617640646408705
-0.4914454894375	-0.7620366929675417
-0.49138445428125	-0.7623014528136451
-0.491323419125	-0.7625581814433937
-0.49126238396875	-0.7628066590163715
-0.4912013488125	-0.7630466153182884
-0.49114031365625	-0.7632777380221951
-0.4910792785	-0.7634996824872368
-0.49101824334375	-0.7637120829412478
-0.4909572081875	-0.7639145644403338
-0.49089617303125	-0.7641067551435458
-0.490835137875	-0.7642882986037736
-0.49077410271875	-0.7644588656898966
-0.4907130675625	-0.7646181656916543
-0.49065203240625	-0.7647659562345692
-0.49059099725	-0.7649020517426228
-0.49052996209375	-0.7650263299921947
-0.4904689269375	-0.7651387363170212
-0.49040789178125	-0.7652392854331634
-0.490346856625	-0.7653280610679253
-0.49028582146875	-0.7654052134662996
-0.4902247863125	-0.7654709544755053
-0.49016375115625	-0.7655255500903456
-0.490102716	-0.7655693109911961
-0.49004168084375	-0.7656025816121058
-0.4899806456875	-0.7656257280357629
-0.48991961053125	-0.7656391250319944
-0.489858575375	-0.7656431426444426
-0.48979754021875	-0.7656381329750261
-0.4897365050625	-0.7656244178261542
-0.48967546990625	-0.7656022773995822
-0.48961443475	-0.7655719403426597
-0.48955339959375	-0.7655335757422016
-0.4894923644375	-0.7654872873473184
-0.48943132928125	-0.7654331102096039
-0.489370294125	-0.7653710098568979
-0.48930925896875	-0.7653008838301548
-0.4892482238125	-0.7652225654701741
-0.48918718865625	-0.7651358298904916
-0.4891261535	-0.7650404021143022
-0.48906511834375	-0.7649359671510332
-0.4890040831875	-0.7648221813389864
-0.48894304803125	-0.7646986844349756
-0.488882012875	-0.7645651121795258
-0.48882097771875	-0.7644211089796621
-0.4887599425625	-0.7642663403458709
-0.48869890740625	-0.7641005045813246
-0.48863787225	-0.7639233431090414
-0.48857683709375	-0.7637346489918524
-0.4885158019375	-0.7635342734824841
-0.48845476678125	-0.7633221307186705
-0.488393731625	-0.7630982004711605
-0.48833269646875	-0.7628625283841938
-0.4882716613125	-0.7626152235498505
-0.48821062615625	-0.7623564539955164
-0.488149591	-0.7620864404577148
-0.48808855584375	-0.7618054485315945
-0.4880275206875	-0.7615137794386964
-0.48796648553125	-0.7612117595906457
-0.487905450375	-0.7608997291196037
-0.48784441521875	-0.7605780297950934
-0.4877833800625	-0.7602469931114894
-0.48772234490625	-0.7599069291919561
-0.48766130975	-0.7595581166026645
-0.48760027459375	-0.7592007931180914
-0.4875392394375	-0.7588351476269078
-0.48747820428125	-0.7584613136718547
-0.487417169125	-0.7580793652368352
-0.48735613396875	-0.7576893147949092
-0.4872950988125	-0.757291113188424
-0.48723406365625	-0.7568846511497529
-0.4871730285	-0.7564697628048728
-0.48711199334375	-0.7560462315057903
-0.4870509581875	-0.7556137976360575
-0.48698992303125	-0.755172167828678
-0.486928887875	-0.7547210253429936
-0.48686785271875	-0.754260040989225
-0.4868068175625	-0.7537888840062817
-0.48674578240625	-0.7533072332970109
-0.48668474725	-0.7528147892284744
-0.48662371209375	-0.7523112848888467
-0.4865626769375	-0.7517964957913493
-0.48650164178125	-0.7512702479303508
-0.486440606625	-0.7507324240244732
-0.48637957146875	-0.7501829678764429
-0.4863185363125	-0.7496218868638219
-0.48625750115625	-0.7490492520865828
-0.486196466	-0.7484651961418092
-0.48613543084375	-0.747869908900203
-0.4860743956875	-0.7472636312623251
-0.48601336053125	-0.7466466470447248
-0.485952325375	-0.7460192735358644
-0.48589129021875	-0.7453818508657125
-0.4858302550625	-0.7447347300140448
-0.48576921990625	-0.7440782600172241
-0.48570818475	-0.743412775604352
-0.48564714959375	-0.7427385860459684
-0.4855861144375	-0.7420559651919788
-0.48552507928125	-0.7413651423675445
-0.485464044125	-0.740666294135462
-0.48540300896875	-0.7399595378520231
-0.4853419738125	-0.7392449281256905
-0.48528093865625	-0.738522455885286
-0.4852199035	-0.7377920494770042
-0.48515886834375	-0.7370535781573608
-0.4850978331875	-0.7363068576118683
-0.48503679803125	-0.7355516569584912
-0.484975762875	-0.7347877077465214
-0.48491472771875	-0.734014714692189
-0.4848536925625	-0.7332323670355321
-0.48479265740625	-0.7324403500660562
-0.48473162225	-0.7316383567822954
-0.48467058709375	-0.7308260993571175
-0.4846095519375	-0.7300033197345216
-0.48454851678125	-0.729169798735515
-0.484487481625	-0.728325363600372
-0.48442644646875	-0.7274698940891323
-0.4843654113125	-0.7266033267919336
-0.48430437615625	-0.7257256572866825
-0.484243341	-0.7248369402292879
-0.48418230584375	-0.7239372873298408
-0.4841212706875	-0.7230268631949625
-0.48406023553125	-0.7221058795759387
-0.483999200375	-0.7211745881255799
-0.48393816521875	-0.7202332711514212
-0.4838771300625	-0.7192822308830754
-0.48381609490625	-0.7183217785403745
-0.48375505975	-0.7173522235475419
-0.48369402459375	-0.7163738627248264
-0.4836329894375	-0.7153869698015858
-0.48357195428125	-0.7143917855989423
-0.483510919125	-0.7133885093712662
-0.48344988396875	-0.7123772922467952
-0.4833888488125	-0.7113582326162315
-0.48332781365625	-0.7103313728044771
-0.4832667785	-0.7092966978849675
-0.48320574334375	-0.7082541372401434
-0.4831447081875	-0.7072035677537427
-0.48308367303125	-0.7061448182626678
-0.483022637875	-0.7050776762033355
-0.48296160271875	-0.7040018962185006
-0.4829005675625	-0.7029172094270129
-0.48283953240625	-0.7018233328981565
-0.48277849725	-0.7007199796322489
-0.48271746209375	-0.6996068689210639
-0.4826564269375	-0.6984837364330702
-0.48259539178125	-0.6973503434516652
-0.482534356625	-0.6962064850846035
-0.48247332146875	-0.6950519975900175
-0.4824122863125	-0.6938867644532812
-0.48235125115625	-0.6927107204606971
-0.482290216	-0.691523853962121
-0.48222918084375	-0.6903262077958714
-0.4821681456875	-0.6891178783593218
-0.48210711053125	-0.6878990125691216
-0.482046075375	-0.6866698032485118
-0.48198504021875	-0.6854304828445913
-0.4819240050625	-0.6841813152563709
-0.48186296990625	-0.6829225867160866
-0.48180193475	-0.681654596784801
-0.48174089959375	-0.6803776492192793
-0.4816798644375	-0.6790920421487027
-0.48161882928125	-0.6777980578862606
-0.481557794125	-0.6764959532966672
-0.48149675896875	-0.6751859519147835
-0.4814357238125	-0.6738682382923219
-0.48137468865625	-0.6725429540679294
-0.4813136535	-0.6712101951595733
-0.48125261834375	-0.6698700095327985
-0.4811915831875	-0.6685223958257653
-0.48113054803125	-0.6671673039620183
-0.481069512875	-0.6658046380251833
-0.48100847771875	-0.6644342606381148
-0.4809474425625	-0.6630559981479484
-0.48088640740625	-0.6616696464168768
-0.48082537225	-0.6602749775332825
-0.48076433709375	-0.6588717474276827
-0.4807033019375	-0.6574597036857089
-0.48064226678125	-0.6560385936041245
-0.480581231625	-0.6546081729236031
-0.48052019646875	-0.6531682144530928
-0.4804591613125	-0.6517185156898561
-0.48039812615625	-0.6502589054308816
-0.480337091	-0.648789249685539
-0.48027605584375	-0.6473094567761165
-0.4802150206875	-0.6458194805364115
-0.48015398553125	-0.6443193210418687
-0.480092950375	-0.6428090237882523
-0.48003191521875	-0.641288677986696
-0.4799708800625	-0.6397584138014271
-0.47990984490625	-0.6382183982213377
-0.47984880975	-0.6366688295226811
-0.47978777459375	-0.6351099309605132
-0.4797267394375	-0.6335419442823844
-0.47966570428125	-0.6319651231395218
-0.479604669125	-0.6303797266000866
-0.47954363396875	-0.6287860125828725
-0.4794825988125	-0.6271842308512569
-0.47942156365625	-0.6255746160362655
-0.4793605285	-0.6239573812815887
-0.47929949334375	-0.6223327125356797
-0.4792384581875	-0.6207007632032853
-0.47917742303125	-0.6190616496823832
-0.479116387875	-0.6174154488715614
-0.47905535271875	-0.6157621972805153
-0.4789943175625	-0.6141018911980907
-0.47893328240625	-0.6124344884468094
-0.47887224725	-0.6107599114935539
-0.47881121209375	-0.6090780514889069
-0.4787501769375	-0.6073887733302893
-0.47868914178125	-0.6056919208926885
-0.478628106625	-0.6039873217784371
-0.47856707146875	-0.6022747926440153
-0.4785060363125	-0.6005541457073629
-0.47844500115625	-0.59882519545357
-0.478383966	-0.5970877647785925
-0.47832293084375	-0.5953416909331727
-0.4782618956875	-0.5935868319705039
-0.47820086053125	-0.5918230732171437
-0.478139825375	-0.5900503327327098
-0.47807879021875	-0.5882685655205979
-0.4780177550625	-0.5864777653516527
-0.47795671990625	-0.5846779637708498
-0.47789568475	-0.5828692285816958
-0.47783464959375	-0.5810516621166697
-0.4777736144375	-0.5792253975470327
-0.47771257928125	-0.5773905934948793
-0.477651544125	-0.5755474274578216
-0.47759050896875	-0.5736960885317001
-0.4775294738125	-0.5718367700593809
-0.47746843865625	-0.5699696609561199
-0.4774074035	-0.5680949350300891
-0.47734636834375	-0.5662127392131061
-0.4772853331875	-0.564323181220621
-0.47722429803125	-0.5624263144020369
-0.477163262875	-0.5605221213162185
-0.47710222771875	-0.558610513609202
-0.4770411925625	-0.5566913589591526
-0.47698015740625	-0.5547645156617208
-0.47691912225	-0.5528298561819308
-0.47685808709375	-0.5508872815459056
-0.4767970519375	-0.5489367310305351
-0.47673601678125	-0.5469781880289273
-0.476674981625	-0.5450116828608793
-0.47661394646875	-0.5430372926728424
-0.4765529113125	-0.5410551385137513
-0.47649187615625	-0.5390653800169304
-0.476430841	-0.5370682083575888
-0.47636980584375	-0.5350638381459565
-0.4763087706875	-0.5330524985916155
-0.47624773553125	-0.5310344244396635
-0.476186700375	-0.5290098470351937
-0.47612566521875	-0.5269789850941856
-0.4760646300625	-0.5249420351975663
-0.47600359490625	-0.5228991638321889
-0.47594255975	-0.5208505021237161
-0.47588152459375	-0.518796141698384
-0.4758204894375	-0.516736131130437
-0.47575945428125	-0.5146704742334403
-0.475698419125	-0.5125991299316077
-0.47563738396875	-0.5105220130663701
-0.4755763488125	-0.5084389970594446
-0.47551531365625	-0.5063499191431972
-0.4754542785	-0.5042545870077709
-0.47539324334375	-0.5021527854759739
-0.4753322081875	-0.5000442833812622
-0.47527117303125	-0.4979288413974903
-0.475210137875	-0.4958062208382113
-0.47514910271875	-0.493676192069519
-0.4750880675625	-0.4915385415490447
-0.47502703240625	-0.48939307834107315
-0.47496599725	-0.48723964044422347
-0.47490496209375	-0.48507810032456034
-0.4748439269375	-0.48290836871080745
-0.47478289178125	-0.48073039622568436
-0.474721856625	-0.4785441742527432
-0.47466082146875	-0.4763497356309486
-0.4745997863125	-0.47414715389530804
-0.47453875115625	-0.47193654011549835
-0.474477716	-0.4697180375279452
-0.47441668084375	-0.46749181546656055
-0.4743556456875	-0.4652580637996577
-0.47429461053125	-0.46301698680894887
-0.474233575375	-0.4607687959999416
-0.47417254021875	-0.4585137035940467
-0.4741115050625	-0.45625191707402357
-0.47405046990625	-0.4539836334824253
-0.47398943475	-0.4517090333353877
-0.47392839959375	-0.44942827537908187
-0.4738673644375	-0.447141493383404
-0.47380632928125	-0.4448487945220115
-0.473745294125	-0.44255025793786823
-0.47368425896875	-0.4402459335048592
-0.4736232238125	-0.43793584202059493
-0.47356218865625	-0.4356199773230958
-0.4735011535	-0.4332983095140134
-0.47344011834375	-0.4309707883288275
-0.4733790831875	-0.42863734655782254
-0.47331804803125	-0.4262979043900586
-0.473257012875	-0.4239523750354785
-0.47319597771875	-0.4216006699887418
-0.4731349425625	-0.4192427033699074
-0.47307390740625	-0.4168783968172552
-0.47301287225	-0.4145076838969807
-0.47295183709375	-0.4121305124676726
-0.4728908019375	-0.4097468464422009
-0.47282976678125	-0.40735666747066557
-0.472768731625	-0.4049599755560879
-0.47270769646875	-0.40255678899522257
-0.4726466613125	-0.40014714425110265
-0.47258562615625	-0.3977310953108571
-0.472524591	-0.39530871170854265
-0.47246355584375	-0.3928800753564842
-0.4724025206875	-0.3904452776999655
-0.47234148553125	-0.38800441750235204
-0.472280450375	-0.38555759777162524
-0.47221941521875	-0.3831049217210734
-0.4721583800625	-0.38064648939723505
-0.47209734490625	-0.37818239517922586
-0.47203630975	-0.3757127249204681
-0.47197527459375	-0.37323755332766995
-0.4719142394375	-0.37075694279593446
-0.47185320428125	-0.36827094309120334
-0.471792169125	-0.3657795910835782
-0.47173113396875	-0.3632829105483157
-0.4716700988125	-0.36078091304675447
-0.47160906365625	-0.35827360047883183
-0.4715480285	-0.3557609675972374
-0.47148699334375	-0.35324300367502287
-0.4714259581875	-0.3507196946770558
-0.47136492303125	-0.34819102618046793
-0.471303887875	-0.3456569864152834
-0.47124285271875	-0.34311756965752366
-0.4711818175625	-0.3405727796246301
-0.47112078240625	-0.3380226312149401
-0.47105974725	-0.3354671509076046
-0.47099871209375	-0.33290637821293795
-0.4709376769375	-0.3303403678200184
-0.47087664178125	-0.32776919029266566
-0.470815606625	-0.32519293136236155
-0.47075457146875	-0.32261169056158595
-0.4706935363125	-0.3200255794253351
-0.47063250115625	-0.317434719649238
-0.470571466	-0.31483924099399485
-0.47051043084375	-0.3122392787039185
-0.4704493956875	-0.3096349703932933
-0.47038836053125	-0.30702645224511976
-0.470327325375	-0.30441385529736703
-0.47026629021875	-0.301797302643957
-0.4702052550625	-0.2991769073179832
-0.47014421990625	-0.2965527702129577
-0.47008318475	-0.29392497770322146
-0.47002214959375	-0.29129359946118444
-0.4699611144375	-0.2886586875236024
-0.46990007928125	-0.2860202769210067
-0.469839044125	-0.2833783868344398
-0.46977800896875	-0.28073302109488324
-0.4697169738125	-0.2780841686546894
-0.46965593865625	-0.2754318055481408
-0.4695949035	-0.27277589773686445
-0.46953386834375	-0.27011640332743647
-0.4694728331875	-0.2674532745898078
-0.46941179803125	-0.26478646053199334
-0.469350762875	-0.26211590901768533
-0.46928972771875	-0.25944156797957996
-0.4692286925625	-0.25676338685654476
-0.46916765740625	-0.2540813182322209
-0.46910662225	-0.25139531914769864
-0.46904558709375	-0.24870535256102858
-0.4689845519375	-0.24601138866673128
-0.46892351678125	-0.24331340549467606
-0.468862481625	-0.24061138942589375
-0.46880144646875	-0.23790533584146298
-0.4687404113125	-0.23519524946706433
-0.46867937615625	-0.23248114492248698
-0.468618341	-0.2297630476955293
-0.46855730584375	-0.227040994549995
-0.4684962706875	-0.22431503339222705
-0.46843523553125	-0.2215852237707207
-0.468374200375	-0.21885163815801825
-0.46831316521875	-0.2161143631309246
-0.4682521300625	-0.21337350015181172
-0.46819109490625	-0.21062916626599018
-0.46813005975	-0.207881494181085
-0.46806902459375	-0.20513063169372664
-0.4680079894375	-0.20237674108795548
-0.46794695428125	-0.1996199978703895
-0.467885919125	-0.1968605887182608
-0.46782488396875	-0.19409870879566513
-0.4677638488125	-0.19133455810459232
-0.46770281365625	-0.18856833737455797
-0.4676417785	-0.18580024354331054
-0.46758074334375	-0.18303046477420054
-0.4675197081875	-0.18025917556029233
-0.46745867303125	-0.1774865321763913
-0.467397637875	-0.1747126683608449
-0.46733660271875	-0.17193769048624954
-0.4672755675625	-0.16916167262392695
