Time	Frequency
-0.5000162944687503	-0.8086691871463582
-0.4999552593125003	-0.8085600201440676
-0.4998942241562503	-0.808438541745776
-0.4998331890000003	-0.8083047138737494
-0.4997721538437503	-0.8081584922983374
-0.4997111186875003	-0.8079998280451707
-0.4996500835312503	-0.8078286688425345
-0.4995890483750003	-0.8076449605835803
-0.4995280132187503	-0.807448648925981
-0.4994669780625003	-0.8072396809986735
-0.4994059429062503	-0.8070180070528958
-0.4993449077500003	-0.8067835819532291
-0.4992838725937503	-0.8065363665614905
-0.4992228374375003	-0.8062763290235386
-0.4991618022812503	-0.8060034458123635
-0.4991007671250003	-0.8057177024870512
-0.4990397319687503	-0.8054190942038816
-0.4989786968125003	-0.8051076259043348
-0.4989176616562503	-0.8047833121941874
-0.4988566265000003	-0.8044461770227239
-0.4987955913437503	-0.8040962531035302
-0.4987345561875003	-0.8037335810018456
-0.4986735210312503	-0.8033582079827284
-0.4986124858750003	-0.8029701866752437
-0.4985514507187503	-0.8025695735529624
-0.4984904155625003	-0.8021564272904109
-0.4984293804062503	-0.8017308070509385
-0.4983683452500003	-0.8012927707926459
-0.4983073100937503	-0.8008423736482
-0.4982462749375003	-0.8003796663692878
-0.4981852397812503	-0.79990469392183
-0.4981242046250003	-0.7994174943204571
-0.4980631694687503	-0.7989180976579762
-0.4980021343125003	-0.7984065252849384
-0.4979410991562503	-0.7978827892601094
-0.4978800640000003	-0.797346892212491
-0.4978190288437503	-0.7967988275007069
-0.4977579936875003	-0.7962385795216153
-0.4976969585312503	-0.7956661242854858
-0.4976359233750003	-0.795081430367767
-0.4975748882187503	-0.7944844600777056
-0.4975138530625003	-0.7938751707168903
-0.4974528179062503	-0.7932535160275377
-0.4973917827500003	-0.7926194478445792
-0.4973307475937503	-0.7919729177813698
-0.4972697124375003	-0.7913138788565117
-0.4972086772812503	-0.7906422871284582
-0.4971476421250003	-0.789958103315386
-0.4970866069687503	-0.789261294210373
-0.4970255718125003	-0.7885518338479222
-0.4969645366562503	-0.787829704500278
-0.4969035015000003	-0.7870948974211789
-0.4968424663437503	-0.7863474132948822
-0.4967814311875003	-0.785587262461806
-0.4967203960312503	-0.7848144648614893
-0.4966593608750003	-0.7840290496587821
-0.4965983257187503	-0.7832310545881629
-0.4965372905625003	-0.7824205249748061
-0.4964762554062503	-0.7815975124834253
-0.4964152202500003	-0.7807620737751387
-0.4963541850937503	-0.779914269144422
-0.4962931499375003	-0.7790541610024777
-0.4962321147812503	-0.778181812129025
-0.4961710796250003	-0.7772972838885376
-0.4961100444687503	-0.7764006346867737
-0.4960490093125003	-0.775491918690606
-0.4959879741562503	-0.7745711845387182
-0.4959269390000003	-0.7736384739885832
-0.4958659038437503	-0.7726938208674127
-0.4958048686875003	-0.7717372504714364
-0.4957438335312503	-0.7707687792365395
-0.4956827983750003	-0.7697884146673017
-0.4956217632187503	-0.7687961555395694
-0.4955607280625003	-0.7677919923122111
-0.4954996929062503	-0.76677590780637
-0.4954386577500003	-0.765747878174494
-0.4953776225937503	-0.7647078740427604
-0.4953165874375003	-0.7636558617610647
-0.4952555522812503	-0.7625918047944216
-0.4951945171250003	-0.7615156652443091
-0.4951334819687503	-0.7604274054452959
-0.4950724468125003	-0.7593269896150324
-0.4950114116562503	-0.758214385434241
-0.4949503765000003	-0.757089565415267
-0.4948893413437503	-0.7559525081035009
-0.4948283061875003	-0.7548031991671225
-0.4947672710312503	-0.753641632249271
-0.4947062358750003	-0.7524678094436109
-0.4946452007187503	-0.7512817415399425
-0.4945841655625003	-0.7500834481897595
-0.4945231304062503	-0.7488729578086893
-0.4944620952500003	-0.7476503071532506
-0.4944010600937503	-0.7464155406606328
-0.4943400249375003	-0.7451687095583265
-0.4942789897812503	-0.7439098708651289
-0.4942179546250003	-0.742639086230145
-0.4941569194687503	-0.7413564204732993
-0.4940958843125003	-0.7400619400624558
-0.4940348491562503	-0.7387557116803409
-0.4939738140000003	-0.7374378007493253
-0.4939127788437503	-0.7361082700072161
-0.4938517436875003	-0.734767178351912
-0.4937907085312503	-0.7334145797532947
-0.4937296733750003	-0.732050522037228
-0.4936686382187503	-0.7306750458994302
-0.4936076030625003	-0.7292881843751309
-0.4935465679062503	-0.7278899625503866
-0.4934855327500003	-0.7264803974357811
-0.4934244975937503	-0.7250594981142312
-0.4933634624375003	-0.7236272661310875
-0.4933024272812503	-0.7221836960410252
-0.4932413921250003	-0.7207287762174196
-0.4931803569687503	-0.7192624898919374
-0.4931193218125003	-0.717784816245308
-0.4930582866562503	-0.7162957315949163
-0.4929972515000003	-0.7147952106657735
-0.4929362163437503	-0.7132832278940672
-0.4928751811875003	-0.7117597588726127
-0.4928141460312503	-0.7102247818192207
-0.4927531108750003	-0.7086782788006322
-0.4926920757187503	-0.7071202366977752
-0.4926310405625003	-0.7055506480465573
-0.4925700054062503	-0.7039695118713118
-0.4925089702500003	-0.7023768344405432
-0.4924479350937503	-0.7007726297344655
-0.4923868999375003	-0.6991569196254148
-0.4923258647812503	-0.6975297338062235
-0.4922648296250003	-0.695891109408434
-0.4922037944687503	-0.6942410904052921
-0.4921427593125003	-0.6925797269553727
-0.4920817241562503	-0.690907074698987
-0.4920206890000003	-0.6892231938311635
-0.4919596538437503	-0.6875281478455009
-0.4918986186875003	-0.6858220022038412
-0.4918375835312503	-0.684104823186414
-0.4917765483750003	-0.6823766767806073
-0.4917155132187503	-0.6806376274067226
-0.4916544780625003	-0.6788877366152928
-0.4915934429062503	-0.6771270620618257
-0.4915324077500003	-0.6753556567544318
-0.4914713725937503	-0.6735735682918632
-0.4914103374375003	-0.6717808381643423
-0.4913493022812503	-0.6699775013968761
-0.4912882671250003	-0.6681635864410841
-0.4912272319687503	-0.6663391152024712
-0.4911661968125003	-0.6645041032796836
-0.4911051616562503	-0.6626585602919918
-0.4910441265000003	-0.6608024901685414
-0.4909830913437503	-0.6589358916901309
-0.4909220561875003	-0.6570587595029163
-0.4908610210312503	-0.6551710852061257
-0.4907999858750003	-0.6532728582599951
-0.4907389507187503	-0.6513640669600249
-0.4906779155625003	-0.6494446995208881
-0.4906168804062503	-0.6475147451574824
-0.4905558452500003	-0.6455741951246586
-0.4904948100937503	-0.6436230436701982
-0.4904337749375003	-0.6416612889262516
-0.4903727397812503	-0.6396889338201058
-0.4903117046250003	-0.6377059868885915
-0.4902506694687503	-0.6357124626381616
-0.4901896343125003	-0.6337083815490259
-0.4901285991562503	-0.6316937701836044
-0.4900675640000003	-0.6296686613522796
-0.4900065288437503	-0.6276330941177823
-0.4899454936875003	-0.6255871136459834
-0.4898844585312503	-0.6235307708350761
-0.4898234233750003	-0.6214641216489644
-0.4897623882187503	-0.6193872262631526
-0.4897013530625003	-0.6173001482145231
-0.4896403179062503	-0.6152029535828527
-0.4895792827500003	-0.6130957100734394
-0.4895182475937503	-0.6109784861055744
-0.4894572124375003	-0.6088513500369508
-0.4893961772812503	-0.6067143693701452
-0.4893351421250003	-0.6045676098611655
-0.4892741069687503	-0.6024111345070564
-0.4892130718125003	-0.6002450025415393
-0.4891520366562503	-0.5980692687642956
-0.4890910015000003	-0.5958839830820567
-0.4890299663437503	-0.5936891900169264
-0.4889689311875003	-0.5914849283594481
-0.4889078960312503	-0.5892712309378058
-0.4888468608750003	-0.5870481243826255
-0.4887858257187503	-0.5848156291588804
-0.4887247905625003	-0.5825737598363634
-0.4886637554062503	-0.5803225253347415
-0.4886027202500003	-0.5780619293030038
-0.4885416850937503	-0.5757919707962614
-0.4884806499375003	-0.573512645192167
-0.4884196147812503	-0.5712239452314213
-0.4883585796250003	-0.5689258619845968
-0.4882975444687503	-0.5666183857468761
-0.4882365093125003	-0.5643015070704501
-0.4881754741562503	-0.5619752179426969
-0.4881144390000003	-0.5596395129630694
-0.4880534038437503	-0.5572943904979718
-0.4879923686875003	-0.5549398537744508
-0.4879313335312503	-0.5525759118449509
-0.4878702983750003	-0.5502025805251257
-0.4878092632187503	-0.5478198832439276
-0.4877482280625003	-0.5454278515620788
-0.4876871929062503	-0.5430265254064313
-0.4876261577500003	-0.540615953201997
-0.4875651225937503	-0.5381961919014706
-0.4875040874375003	-0.5357673067383211
-0.4874430522812503	-0.5333293705574789
-0.4873820171250003	-0.5308824628448972
-0.4873209819687503	-0.5284266686805492
-0.4872599468125003	-0.5259620777108333
-0.4871989116562503	-0.5234887829829455
-0.4871378765000003	-0.5210068794461236
-0.4870768413437503	-0.5185164622592121
-0.4870158061875003	-0.5160176250672887
-0.4869547710312503	-0.5135104583158207
-0.4868937358750003	-0.5109950477430175
-0.4868327007187503	-0.5084714730009103
-0.4867716655625003	-0.5059398062696289
-0.4867106304062503	-0.5034001109104677
-0.4866495952500003	-0.5008524403540832
-0.4865885600937503	-0.49829683744757125
-0.4865275249375003	-0.4957333341549754
-0.4864664897812503	-0.4931619513552847
-0.4864054546250003	-0.490582698933613
-0.4863444194687503	-0.48799557639465685
-0.4862833843125003	-0.4854005737822438
-0.4862223491562503	-0.4827976728128289
-0.4861613140000003	-0.48018684836792175
-0.4861002788437503	-0.4775680702627912
-0.4860392436875003	-0.4749413051623813
-0.4859782085312503	-0.4723065186956757
-0.4859171733750003	-0.4696636777340784
-0.4858561382187503	-0.467012752653644
-0.4857951030625003	-0.4643537194825486
-0.4857340679062503	-0.46168656191551527
-0.4856730327500003	-0.4590112731325916
-0.4856119975937503	-0.45632785745391424
-0.4855509624375003	-0.4536363318445774
-0.4854899272812503	-0.4509367269954925
-0.4854288921250003	-0.44822908786110116
-0.4853678569687503	-0.4455134738335575
-0.4853068218125003	-0.44278995856741055
-0.4852457866562503	-0.4400586293863652
-0.4851847515000003	-0.43731958625402384
-0.4851237163437503	-0.4345729402460403
-0.4850626811875003	-0.4318188115816973
-0.4850016460312503	-0.42905732743571123
-0.4849406108750003	-0.4262886196158318
-0.4848795757187503	-0.42351282198256507
-0.4848185405625003	-0.4207300676963235
-0.4847575054062503	-0.4179404864740643
-0.4846964702500003	-0.4151442017887154
-0.4846354350937503	-0.4123413282040375
-0.4845743999375003	-0.4095319691140362
-0.4845133647812503	-0.4067162147598656
-0.4844523296250003	-0.4038941405882616
-0.4843912944687503	-0.40106580609214804
-0.4843302593125003	-0.3982312540606647
-0.4842692241562503	-0.3953905103586012
-0.4842081890000003	-0.3925435842093293
-0.4841471538437503	-0.3896904687961813
-0.4840861186875003	-0.3868311424628175
-0.4840250835312503	-0.3839655707057963
-0.4839640483750003	-0.38109370851698937
-0.4839030132187503	-0.37821550279009025
-0.4838419780625003	-0.375330895020992
-0.4837809429062503	-0.3724398243354452
-0.4837199077500003	-0.36954223064270314
-0.4836588725937503	-0.366638057830944
-0.4835978374375003	-0.3637272568288633
-0.4835368022812503	-0.3608097883432108
-0.4834757671250003	-0.3578856252779421
-0.4834147319687503	-0.35495475496379475
-0.4833536968125003	-0.3520171811482452
-0.4832926616562503	-0.34907292541439744
-0.4832316265000003	-0.34612202789724544
-0.4831705913437503	-0.34316454741326347
-0.4831095561875003	-0.34020056109683633
-0.4830485210312503	-0.33723016365125996
-0.4829874858750003	-0.3342534661901647
-0.4829264507187503	-0.33127059444260426
-0.4828654155625003	-0.32828168617841597
-0.4828043804062503	-0.32528688813149853
-0.4827433452500003	-0.32228635296940866
-0.4826823100937503	-0.31928023636081965
-0.4826212749375003	-0.31626869378440825
-0.4825602397812503	-0.31325187710873376
-0.4824992046250003	-0.3102299313020339
-0.4824381694687503	-0.30720299152270647
-0.4823771343125003	-0.3041711804592374
-0.4823160991562503	-0.30113460577746615
-0.4822550640000003	-0.2980933580001635
-0.4821940288437503	-0.29504750910454897
-0.4821329936875003	-0.2919971117276545
-0.4820719585312503	-0.2889421988715691
-0.4820109233750003	-0.2858827842577993
-0.4819498882187503	-0.2828188633651381
-0.4818888530625003	-0.2797504149816361
-0.4818278179062503	-0.2766774031976179
-0.4817667827500003	-0.27359977980026007
-0.4817057475937503	-0.27051748708165063
-0.4816447124375003	-0.26743046102964546
-0.4815836772812503	-0.26433863470080027
-0.4815226421250003	-0.26124194156305025
-0.4814616069687503	-0.2581403188528533
-0.4814005718125003	-0.25503371113784756
-0.4813395366562503	-0.2519220737056561
-0.4812785015000003	-0.24880537530728683
-0.4812174663437503	-0.2456836004437175
-0.4811564311875003	-0.24255675135485788
-0.4810953960312503	-0.2394248496221599
-0.4810343608750003	-0.23628793721215546
-0.4809733257187503	-0.233146076738414
-0.4809122905625003	-0.22999935113221956
-0.4808512554062503	-0.22684786292483425
-0.4807902202500003	-0.2236917328411533
-0.4807291850937503	-0.2205310976264242
-0.4806681499375003	-0.2173661073839894
-0.4806071147812503	-0.2141969225149733
-0.4805460796250003	-0.21102371036941675
-0.4804850444687503	-0.2078466417418207
-0.4804240093125003	-0.20466588717810635
-0.4803629741562503	-0.20148161326734754
-0.4803019390000003	-0.19829397914833785
-0.4802409038437503	-0.1951031330836151
-0.4801798686875003	-0.19190920916710802
-0.4801188335312503	-0.18871232467942928
-0.4800577983750003	-0.1855125780784929
-0.4799967632187503	-0.1823100472258315
-0.4799357280625003	-0.17910478804186314
-0.4798746929062503	-0.1758968338920734
-0.4798136577500003	-0.17268619571989902
-0.4797526225937503	-0.1694728629944743
-0.4796915874375003	-0.1662568053174581
-0.4796305522812503	-0.16303797445977927
-0.4795695171250003	-0.15981630684792503
-0.4795084819687503	-0.15659172659096915
-0.4794474468125003	-0.1533641490712704
-0.4793864116562503	-0.15013348490290584
-0.4793253765000003	-0.14689964406460243
-0.4792643413437503	-0.14366254012287574
-0.4792033061875003	-0.14042209436842065
-0.4791422710312503	-0.13717823972030807
-0.4790812358750003	-0.13393092432511955
-0.4790202007187503	-0.13068011477279592
-0.4789591655625003	-0.12742579888719324
-0.4788981304062503	-0.12416798805580061
-0.4788370952500003	-0.12090671899407651
-0.4787760600937503	-0.11764205486114947
-0.4787150249375003	-0.11437408558295731
-0.4786539897812503	-0.11110292704586347
-0.4785929546250003	-0.10782871927117212
-0.4785319194687503	-0.1045516240955638
-0.4784708843125003	-0.10127182225956544
-0.4784098491562503	-0.09798950975037239
-0.4783488140000003	-0.09470489382599759
-0.4782877788437503	-0.09141818875192832
-0.4782267436875003	-0.08812961106567148
-0.4781657085312503	-0.08483937468714371
-0.4781046733750003	-0.08154768611387261
-0.4780436382187503	-0.07825473969920813
-0.4779826030625003	-0.07496071322993005
-0.4779215679062503	-0.07166576401516297
-0.4778605327500003	-0.0683700254629714
-0.4777994975937503	-0.06507360432326591
-0.4777384624375003	-0.06177657894026682
-0.4776774272812503	-0.05847899837064449
-0.4776163921250003	-0.0551808819872993
-0.4775553569687503	-0.051882219835691905
-0.4774943218125003	-0.04858297422678992
-0.4774332866562503	-0.04528308224120662
-0.4773722515000003	-0.04198245870685403
-0.4773112163437503	-0.038680999973860555
-0.4772501811875003	-0.035378588573764844
-0.4771891460312503	-0.0320750981783321
-0.4771281108750003	-0.028770398696721843
-0.4770670757187503	-0.02546436160665843
-0.4770060405625003	-0.022156865272276845
-0.4769450054062503	-0.018847800144926666
-0.4768839702500003	-0.015537073738898682
-0.4768229350937503	-0.012224615108967378
-0.4767618999375003	-0.008910378714682072
-0.4767008647812503	-0.00559434753674674
-0.4766398296250003	-0.002276535263163361
-0.4765787944687503	0.0010430124243835433
-0.4765177593125003	0.0043642173144190196
-0.4764567241562503	0.007686969040366578
-0.4763956890000003	0.011011126649100925
-0.4763346538437503	0.01433652112808047
-0.4762736186875003	0.017662958548391623
-0.4762125835312503	0.02099022394736946
-0.4761515483750003	0.024318086024564048
-0.4760905132187503	0.027646302340610492
-0.4760294780625003	0.030974624754785865
-0.4759684429062503	0.03430280506587712
-0.4759074077500003	0.03763060078019923
-0.4758463725937503	0.040957780747126984
-0.4757853374375003	0.04428413034252372
-0.4757243022812503	0.04760945612649163
-0.4756632671250003	0.05093359006224191
-0.4756022319687503	0.05425639309348815
-0.4755411968125003	0.05757775785254052
-0.4754801616562503	0.0608976104278767
-0.4754191265000003	0.06421591094895346
-0.4753580913437503	0.06753265303542716
-0.4752970561875003	0.07084786250406122
-0.4752360210312503	0.07416159532887416
-0.4751749858750003	0.0774739346916233
-0.4751139507187503	0.08078498709532957
-0.4750529155625003	0.08409487758294759
-0.4749918804062503	0.08740374441732486
-0.4749308452500003	0.09071173356841353
-0.4748698100937503	0.09401899309727657
-0.4748087749375003	0.09732566748710922
-0.4747477397812503	0.10063189192977681
-0.4746867046250003	0.10393778675830573
-0.4746256694687503	0.10724345246968961
-0.4745646343125003	0.11054896548367957
-0.4745035991562503	0.11385437443671016
-0.4744425640000003	0.11715969722368393
-0.4743815288437503	0.1204649192435318
-0.4743204936875003	0.12376999274677955
-0.4742594585312503	0.1270748370761479
-0.4741984233750003	0.13037933991304362
-0.4741373882187503	0.13368335948139654
-0.4740763530625003	0.13698672762918063
-0.4740153179062503	0.14028925386046964
-0.4739542827500003	0.1435907301023374
-0.4738932475937503	0.14689093593314306
-0.4738322124375003	0.1501896442358309
-0.4737711772812503	0.15348662710141694
-0.4737101421250003	0.15678166169058236
-0.4736491069687503	0.1600745359347514
-0.4735880718125003	0.16336505389775052
-0.4735270366562503	0.16665304030176625
-0.4734660015000003	0.16993834392499588
-0.4734049663437503	0.17322083987218875
-0.4733439311875003	0.17650043020882727
-0.4732828960312503	0.1797770418829272
-0.4732218608750003	0.18305062076548703
-0.4731608257187503	0.18632112199756484
-0.4730997905625003	0.18958850014608272
-0.4730387554062503	0.19285270349844655
-0.4729777202500003	0.19611367316494158
-0.4729166850937503	0.19937134494302033
-0.4728556499375003	0.2026256523859757
-0.4727946147812503	0.20587653043532184
-0.4727335796250003	0.2091239192594498
-0.4726725444687503	0.21236776796246826
-0.4726115093125003	0.21560803778580065
-0.4725504741562503	0.21884470457975785
-0.4724894390000003	0.22207776052600264
-0.4724284038437503	0.22530721505777548
-0.4723673686875003	0.2285330949274431
-0.4723063335312503	0.23175544343441548
-0.4722452983750003	0.23497431886529682
-0.4721842632187503	0.2381897922576967
-0.4721232280625003	0.24140194449821203
-0.4720621929062503	0.24461086279181873
-0.4720011577500003	0.24781663679195803
-0.4719401225937503	0.251019354652656
-0.4718790874375003	0.25421909900051776
-0.4718180522812503	0.25741594284071934
-0.4717570171250003	0.2606099455830376
-0.4716959819687503	0.26380114943432076
-0.4716349468125003	0.2669895764248389
-0.4715739116562503	0.2701752261608544
-0.4715128765000003	0.2733580742072996
-0.4714518413437503	0.27653807108913125
-0.4713908061875003	0.27971514202289843
-0.4713297710312503	0.28288918749036895
-0.4712687358750003	0.28606008469220784
-0.4712077007187503	0.2892276897448859
-0.4711466655625003	0.2923918404970239
-0.4710856304062503	0.2955523600205889
-0.4710245952500003	0.29870906055254093
-0.4709635600937503	0.30186174755728284
-0.4709025249375003	0.3050102239848057
-0.4708414897812503	0.30815429476553857
-0.4707804546250003	0.31129377134531716
-0.4707194194687503	0.3144284759593571
-0.4706583843125003	0.31755824529006343
-0.4705973491562503	0.32068293353374455
-0.4705363140000003	0.3238024151751629
-0.4704752788437503	0.3269165873081124
-0.4704142436875003	0.33002537099165763
-0.4703532085312503	0.3331287115569086
-0.4702921733750003	0.33622657824706437
-0.4702311382187503	0.33931896333511385
-0.4701701030625003	0.34240588045455167
-0.4701090679062503	0.3454873620384742
-0.4700480327500003	0.3485634560855674
-0.4699869975937503	0.3516342224730517
-0.4699259624375003	0.35469972895917434
-0.4698649272812503	0.35776004695690133
-0.4698038921250003	0.36081524703942713
-0.4697428569687503	0.3638653942919584
-0.4696818218125003	0.3669105439408343
