Time	Frequency
-0.5000305105312499	-1.9884454633786163e-21
-0.4999694753749999	-1.9879576886534834e-21
-0.4999084402187499	-1.987444486644407e-21
-0.4998474050624999	-1.9869060098086532e-21
-0.4997863699062499	-1.9863423961196076e-21
-0.4997253347499999	-1.9857537659441433e-21
-0.4996642995937499	-1.985140218875439e-21
-0.4996032644374999	-1.9845018309523225e-21
-0.4995422292812499	-1.9838386528727565e-21
-0.4994811941249999	-1.9831507090112705e-21
-0.4994201589687499	-1.9824379970163647e-21
-0.4993591238124999	-1.9817004882115828e-21
-0.4992980886562499	-1.9809381287663244e-21
-0.4992370534999999	-1.980150841208309e-21
-0.4991760183437499	-1.9793385262727835e-21
-0.4991149831874999	-1.9785010655859784e-21
-0.4990539480312499	-1.9776383251412304e-21
-0.4989929128749999	-1.976750159089003e-21
-0.4989318777187499	-1.975836413723251e-21
-0.4988708425624999	-1.974896931512891e-21
-0.4988098074062499	-1.973931555130299e-21
-0.4987487722499999	-1.972940131661898e-21
-0.4986877370937499	-1.971922516849327e-21
-0.4986267019374999	-1.970878579278522e-21
-0.4985656667812499	-1.9698082042441464e-21
-0.4985046316249999	-1.9687112966701343e-21
-0.4984435964687499	-1.9675877832963532e-21
-0.4983825613124999	-1.966437614648793e-21
-0.4983215261562499	-1.9652607665411934e-21
-0.4982604909999999	-1.9640572407500583e-21
-0.4981994558437499	-1.9628270649997226e-21
-0.4981384206874999	-1.961570292401943e-21
-0.4980773855312499	-1.960287000107744e-21
-0.4980163503749999	-1.9589772872406995e-21
-0.4979553152187499	-1.9576412725478125e-21
-0.4978942800624999	-1.956279091522801e-21
-0.4978332449062499	-1.954890892849614e-21
-0.4977722097499999	-1.953476834824796e-21
-0.4977111745937499	-1.9520370817088705e-21
-0.4976501394374999	-1.95057179944775e-21
-0.4975891042812499	-1.949081151084063e-21
-0.4975280691249999	-1.947565292423522e-21
-0.4974670339687499	-1.9460243681145213e-21
-0.4974059988124999	-1.944458508237315e-21
-0.4973449636562499	-1.942867825320915e-21
-0.4972839284999999	-1.94125241129728e-21
-0.4972228933437499	-1.939612334596113e-21
-0.4971618581874999	-1.9379476383933545e-21
-0.4971008230312499	-1.9362583398534625e-21
-0.4970397878749999	-1.9345444296220562e-21
-0.4969787527187499	-1.9328058717937343e-21
-0.4969177175624999	-1.9310426046991807e-21
-0.4968566824062499	-1.9292545426453627e-21
-0.4967956472499999	-1.927441578445879e-21
-0.4967346120937499	-1.9256035862682445e-21
-0.4966735769374999	-1.9237404249175094e-21
-0.4966125417812499	-1.9218519417791678e-21
-0.4965515066249999	-1.9199379770235483e-21
-0.4964904714687499	-1.91799836778925e-21
-0.4964294363124999	-1.91603295250088e-21
-0.4963684011562499	-1.9140415755047112e-21
-0.4963073659999999	-1.912024091889286e-21
-0.4962463308437499	-1.9099803720649504e-21
-0.4961852956874999	-1.9079103059830386e-21
-0.4961242605312499	-1.9058138070980897e-21
-0.4960632253749999	-1.903690815735338e-21
-0.4960021902187499	-1.9015413015823223e-21
-0.4959411550624999	-1.8993652655908414e-21
-0.4958801199062499	-1.8971627414952078e-21
-0.4958190847499999	-1.8949337967569065e-21
-0.4957580495937499	-1.8926785328446194e-21
-0.4956970144374999	-1.8903970847792435e-21
-0.4956359792812499	-1.8880896194540546e-21
-0.4955749441249999	-1.88575633261294e-21
-0.4955139089687499	-1.883397445196224e-21
-0.4954528738124999	-1.881013199530887e-21
-0.4953918386562499	-1.878603855228216e-21
-0.4953308034999999	-1.8761696844593377e-21
-0.4952697683437499	-1.873710966418739e-21
-0.4952087331874999	-1.8712279812075847e-21
-0.4951476980312499	-1.868721003607302e-21
-0.4950866628749999	-1.866190297143563e-21
-0.4950256277187499	-1.8636361083789617e-21
-0.4949645925624999	-1.8610586611817475e-21
-0.4949035574062499	-1.858458151381003e-21
-0.4948425222499999	-1.8558347421799737e-21
-0.4947814870937499	-1.8531885601721316e-21
-0.4947204519374999	-1.850519691908828e-21
-0.4946594167812499	-1.8478281810343603e-21
-0.4945983816249999	-1.8451140261558306e-21
-0.4945373464687499	-1.8423771797535643e-21
-0.4944763113124999	-1.8396175484637065e-21
-0.4944152761562499	-1.8368349949776235e-21
-0.4943542409999999	-1.8340293409536498e-21
-0.4942932058437499	-1.8312003703055395e-21
-0.4942321706874999	-1.8283478336331058e-21
-0.4941711355312499	-1.825471454293214e-21
-0.4941101003749999	-1.8225709350382093e-21
-0.4940490652187499	-1.819645964794147e-21
-0.4939880300624999	-1.8166962261722496e-21
-0.4939269949062499	-1.8137214032719675e-21
-0.4938659597499999	-1.8107211890682796e-21
-0.4938049245937499	-1.8076952930744866e-21
-0.4937438894374999	-1.804643449704889e-21
-0.4936828542812499	-1.801565426204907e-21
-0.4936218191249999	-1.7984610296480175e-21
-0.4935607839687499	-1.795330113047086e-21
-0.4934997488124999	-1.7921725800444872e-21
-0.4934387136562499	-1.7889883888282857e-21
-0.4933776784999999	-1.785777555645351e-21
-0.4933166433437499	-1.7825401564328977e-21
-0.4932556081874999	-1.7792763265347987e-21
-0.4931945730312499	-1.775986259867782e-21
-0.4931335378749999	-1.77267020703887e-21
-0.4930725027187499	-1.7693284713873465e-21
-0.4930114675624999	-1.765961403691077e-21
-0.4929504324062499	-1.7625693962400753e-21
-0.4928893972499999	-1.7591528755342882e-21
-0.4928283620937499	-1.7557122933598536e-21
-0.4927673269374999	-1.7522481172494845e-21
-0.4927062917812499	-1.748760820756183e-21
-0.4926452566249999	-1.7452508735094993e-21
-0.4925842214687499	-1.7417187314431395e-21
-0.4925231863124999	-1.738164827162876e-21
-0.4924621511562499	-1.734589560372049e-21
-0.4924011159999999	-1.730993288884317e-21
-0.4923400808437499	-1.7273763206514214e-21
-0.4922790456874999	-1.7237389070462584e-21
-0.4922180105312499	-1.72008123742968e-21
-0.4921569753749999	-1.7164034347099857e-21
-0.4920959402187499	-1.7127055521971464e-21
-0.4920349050624999	-1.7089875725140483e-21
-0.4919738699062499	-1.7052494084531008e-21
-0.4919128347499999	-1.7014909050558605e-21
-0.4918517995937499	-1.697711843126141e-21
-0.4917907644374999	-1.6939119447792178e-21
-0.4917297292812499	-1.6900908804924738e-21
-0.4916686941249999	-1.686248277050532e-21
-0.4916076589687499	-1.6823837265007607e-21
-0.4915466238124999	-1.678496796305527e-21
-0.4914855886562499	-1.6745870405320408e-21
-0.4914245534999999	-1.6706540112156484e-21
-0.4913635183437499	-1.6666972693457219e-21
-0.4913024831874999	-1.662716395892331e-21
-0.4912414480312499	-1.6587110029928422e-21
-0.4911804128749999	-1.654680744313323e-21
-0.4911193777187499	-1.6506253240542524e-21
-0.4910583425624999	-1.646544505445828e-21
-0.4909973074062499	-1.6424381183855334e-21
-0.4909362722499999	-1.638306064612641e-21
-0.4908752370937499	-1.6341483207936362e-21
-0.4908142019374999	-1.6299649408005362e-21
-0.4907531667812499	-1.6257560564457118e-21
-0.4906921316249999	-1.621521875893278e-21
-0.4906310964687499	-1.6172626806406875e-21
-0.4905700613124999	-1.6129788211019674e-21
-0.4905090261562499	-1.6086707100421204e-21
-0.4904479909999999	-1.6043388141026794e-21
-0.4903869558437499	-1.5999836438273053e-21
-0.4903259206874999	-1.5956057427742044e-21
-0.4902648855312499	-1.5912056764358321e-21
-0.4902038503749999	-1.5867840208676838e-21
-0.4901428152187499	-1.5823413505812004e-21
-0.4900817800624999	-1.5778782258611073e-21
-0.4900207449062499	-1.5733951802164159e-21
-0.4899597097499999	-1.568892708463221e-21
-0.4898986745937499	-1.5643712557871033e-21
-0.4898376394374999	-1.5598312081013654e-21
-0.4897766042812499	-1.5552728837343018e-21
-0.4897155691249999	-1.5506965261789566e-21
-0.4896545339687499	-1.5461022978465895e-21
-0.4895934988124999	-1.5414902760179542e-21
-0.4895324636562499	-1.536860451828968e-21
-0.4894714284999999	-1.5322127311264616e-21
-0.4894103933437499	-1.5275469366666158e-21
-0.4893493581874999	-1.5228628126128964e-21
-0.4892883230312499	-1.5181600313908707e-21
-0.4892272878749999	-1.5134382019264976e-21
-0.4891662527187499	-1.5086968789565836e-21
-0.4891052175624999	-1.5039355739559744e-21
-0.4890441824062499	-1.4991537674963725e-21
-0.4889831472499999	-1.4943509222697002e-21
-0.4889221120937499	-1.4895264966809693e-21
-0.4888610769374999	-1.4846799590989506e-21
-0.4888000417812499	-1.4798108021083259e-21
-0.4887390066249999	-1.4749185557126767e-21
-0.4886779714687499	-1.4700027997822127e-21
-0.4886169363124999	-1.4650631762801277e-21
-0.4885559011562499	-1.4600993999777636e-21
-0.4884948659999999	-1.4551112667402836e-21
-0.4884338308437499	-1.4500986600337558e-21
-0.4883727956874999	-1.4450615561639657e-21
-0.4883117605312499	-1.4400000275173228e-21
-0.4882507253749999	-1.4349142430194107e-21
-0.4881896902187499	-1.4298044667617894e-21
-0.4881286550624999	-1.4246710553236913e-21
-0.4880676199062499	-1.4195144524503054e-21
-0.4880065847499999	-1.4143351809474394e-21
-0.4879455495937499	-1.4091338331434573e-21
-0.4878845144374999	-1.4039110600519173e-21
-0.4878234792812499	-1.3986675586485644e-21
-0.4877624441249999	-1.3934040578191573e-21
-0.4877014089687499	-1.3881213040944398e-21
-0.4876403738124999	-1.3828200473754911e-21
-0.4875793386562499	-1.3775010262468551e-21
-0.4875183034999999	-1.3721649531632955e-21
-0.4874572683437499	-1.3668125002347275e-21
-0.4873962331874999	-1.3614442861469744e-21
-0.4873351980312499	-1.356060864600862e-21
-0.4872741628749999	-1.350662713943992e-21
-0.4872131277187499	-1.3452502275112081e-21
-0.4871520925624999	-1.3398237054504729e-21
-0.4870910574062499	-1.3343833489068307e-21
-0.4870300222499999	-1.3289292564691922e-21
-0.4869689870937499	-1.323461423123288e-21
-0.4869079519374999	-1.3179797418606465e-21
-0.4868469167812499	-1.3124840071667932e-21
-0.4867858816249999	-1.3069739200405632e-21
-0.4867248464687499	-1.3014490948075847e-21
-0.4866638113124999	-1.2959090680325548e-21
-0.4866027761562499	-1.2903533097797628e-21
-0.4865417409999999	-1.2847812363469424e-21
-0.4864807058437499	-1.2791922235365324e-21
-0.4864196706874999	-1.2735856212369436e-21
-0.4863586355312499	-1.2679607694138617e-21
-0.4862976003749999	-1.2623170138915334e-21
-0.4862365652187499	-1.2566537213052192e-21
-0.4861755300624999	-1.250970293879206e-21
-0.4861144949062499	-1.245266183996349e-21
-0.4860534597499999	-1.2395409078530288e-21
-0.4859924245937499	-1.233794057888028e-21
-0.4859313894374999	-1.2280253137652538e-21
-0.4858703542812499	-1.2222344512073646e-21
-0.4858093191249999	-1.216421348225701e-21
-0.4857482839687499	-1.2105859890247332e-21
-0.4856872488124999	-1.204728465950906e-21
-0.4856262136562499	-1.1988489797214096e-21
-0.4855651784999999	-1.1929478376607835e-21
-0.4855041433437499	-1.1870254492350192e-21
-0.4854431081874999	-1.1810823189289287e-21
-0.4853820730312499	-1.1751190374676288e-21
-0.4853210378749999	-1.1691362722032174e-21
-0.4852600027187499	-1.1631347557778094e-21
-0.4851989675624999	-1.1571152719279034e-21
-0.4851379324062499	-1.1510786399652601e-21
-0.4850768972499999	-1.1450256998588486e-21
-0.4850158620937499	-1.138957296778203e-21
-0.4849548269374999	-1.1328742642944616e-21
-0.4848937917812499	-1.1267774084254336e-21
-0.4848327566249999	-1.1206674929145583e-21
-0.4847717214687499	-1.1145452245552107e-21
-0.4847106863124999	-1.1084112394873108e-21
-0.4846496511562499	-1.1022660908486866e-21
-0.4845886159999999	-1.0961102373234517e-21
-0.4845275808437499	-1.0899440339836082e-21
-0.4844665456874999	-1.0837677267445652e-21
-0.4844055105312499	-1.0775814490277785e-21
-0.4843444753749999	-1.0713852193980531e-21
-0.4842834402187499	-1.0651789414918158e-21
-0.4842224050624999	-1.0589624068567004e-21
-0.4841613699062499	-1.0527353001264443e-21
-0.4841003347499999	-1.0464972065667237e-21
-0.4840392995937499	-1.0402476219731825e-21
-0.4839782644374999	-1.033985964919002e-21
-0.4839172292812499	-1.0277115908045214e-21
-0.4838561941249999	-1.0214238063922373e-21
-0.4837951589687499	-1.0151218850938177e-21
-0.4837341238124999	-1.008805084423884e-21
-0.4836730886562499	-1.0024726651277459e-21
-0.4836120534999999	-9.961239098024395e-22
-0.4835510183437499	-9.89758140173792e-22
-0.4834899831874999	-9.833747335722822e-22
-0.4834289480312499	-9.76973138437189e-22
-0.4833679128749999	-9.705528883187353e-22
-0.4833068777187499	-9.641136136989948e-22
-0.4832458425624999	-9.5765505142165e-22
-0.4831848074062499	-9.51177053045904e-22
-0.4831237722499999	-9.446795921469518e-22
-0.4830627370937499	-9.38162768333046e-22
-0.4830017019374999	-9.31626806953262e-22
-0.4829406667812499	-9.250720553037147e-22
-0.4828796316249999	-9.184989761868176e-22
-0.4828185964687499	-9.11908139448109e-22
-0.4827575613124999	-9.05300211783678e-22
-0.4826965261562499	-8.986759447060205e-22
-0.4826354909999999	-8.9203616061162e-22
-0.4825744558437499	-8.853817370058493e-22
-0.4825134206874999	-8.78713589166607e-22
-0.4824523855312499	-8.720326517597515e-22
-0.4823913503749999	-8.653398602408656e-22
-0.4823303152187499	-8.58636132458472e-22
-0.4822692800624999	-8.519223499415233e-22
-0.4822082449062499	-8.451993393149526e-22
-0.4821472097499999	-8.384678548744615e-22
-0.4820861745937499	-8.317285627897407e-22
-0.4820251394374999	-8.249820274382325e-22
-0.4819641042812499	-8.182286998985404e-22
-0.4819030691249999	-8.114689087107629e-22
-0.4818420339687499	-8.047028531155965e-22
-0.4817809988124999	-7.979305986196068e-22
-0.4817199636562499	-7.91152075454455e-22
-0.4816589284999999	-7.843670807045037e-22
-0.4815978933437499	-7.775752837078571e-22
-0.4815368581874999	-7.707762340329073e-22
-0.4814758230312499	-7.639693723607292e-22
-0.4814147878749999	-7.571540443384201e-22
-0.4813537527187499	-7.503295165989691e-22
-0.4812927175624999	-7.43494994496895e-22
-0.4812316824062499	-7.366496416270958e-22
-0.4811706472499999	-7.297926008269235e-22
-0.4811096120937499	-7.2292301576410345e-22
-0.4810485769374999	-7.1604005274006815e-22
-0.4809875417812499	-7.091429221146142e-22
-0.4809265066249999	-7.022308980128261e-22
-0.4808654714687499	-6.953033361848719e-22
-0.4808044363124999	-6.883596907020521e-22
-0.4807434011562499	-6.8139952946296955e-22
-0.4806823659999999	-6.7442254762240895e-22
-0.4806213308437499	-6.674285774861896e-22
-0.4805602956874999	-6.604175947642676e-22
-0.4804992605312499	-6.533897225414295e-22
-0.4804382253749999	-6.463452328761835e-22
-0.4803771902187499	-6.392845448481069e-22
-0.4803161550624999	-6.322082189057209e-22
-0.4802551199062499	-6.251169480412889e-22
-0.4801940847499999	-6.180115463367387e-22
-0.4801330495937499	-6.108929349070266e-22
-0.4800720144374999	-6.037621247621604e-22
-0.4800109792812499	-5.96620197178467e-22
-0.4799499441249999	-5.894682827505763e-22
-0.4798889089687499	-5.823075388953115e-22
-0.4798278738124999	-5.751391259476751e-22
-0.4797668386562499	-5.679641834274519e-22
-0.4797058034999999	-5.6078380694054165e-22
-0.4796447683437499	-5.535990256650491e-22
-0.4795837331874999	-5.464107810566947e-22
-0.4795226980312499	-5.392199070888749e-22
-0.4794616628749999	-5.320271127124626e-22
-0.4794006277187499	-5.24832967295167e-22
-0.4793395925624999	-5.176378895024183e-22
-0.4792785574062499	-5.104421401217703e-22
-0.4792175222499999	-5.032458179094684e-22
-0.4791564870937499	-4.960488575315917e-22
-0.4790954519374999	-4.888510307912815e-22
-0.4790344167812499	-4.816519523414039e-22
-0.4789733816249999	-4.744510891924665e-22
-0.4789123464687499	-4.67247772963899e-22
-0.4788513113124999	-4.600412152491587e-22
-0.4787902761562499	-4.528305261376511e-22
-0.4787292409999999	-4.456147347688678e-22
-0.4786682058437499	-4.383928119535092e-22
-0.4786071706874999	-4.311636952706297e-22
-0.4785461355312499	-4.239263153187968e-22
-0.4784851003749999	-4.1667962150580433e-22
-0.4784240652187499	-4.0942260713327298e-22
-0.4783630300624999	-4.0215433379231707e-22
-0.4783019949062499	-3.9487395417761945e-22
-0.4782409597499999	-3.8758073249754083e-22
-0.4781799245937499	-3.802740627005134e-22
-0.4781188894374999	-3.729534845887056e-22
-0.4780578542812499	-3.656186966023742e-22
-0.4779968191249999	-3.5826956473713956e-22
-0.4779357839687499	-3.509061279617532e-22
-0.4778747488124999	-3.4352859944973737e-22
-0.4778137136562499	-3.3613736347982886e-22
-0.4777526784999999	-3.287329688577818e-22
-0.4776916433437499	-3.213161189828537e-22
-0.4776306081874999	-3.1388765872167803e-22
-0.4775695730312499	-3.064485581489911e-22
-0.4775085378749999	-2.9899989228129383e-22
-0.4774475027187499	-2.91542817347867e-22
-0.4773864675624999	-2.840785456690517e-22
-0.4773254324062499	-2.7660831967969154e-22
-0.4772643972499999	-2.691333847840919e-22
-0.4772033620937499	-2.61654961447106e-22
-0.4771423269374999	-2.541742173252998e-22
-0.4770812917812499	-2.4669224097950684e-22
-0.4770202566249999	-2.392100184881801e-22
-0.4769592214687499	-2.31728412712441e-22
-0.4768981863124999	-2.2424814517650437e-22
-0.4768371511562499	-2.1676978179261604e-22
-0.4767761159999999	-2.0929372293652114e-22
-0.4767150808437499	-2.0182019803854556e-22
-0.4766540456874999	-1.9434926768373471e-22
-0.4765930105312499	-1.8688084002778273e-22
-0.4765319753749999	-1.7941470534775407e-22
-0.4764709402187499	-1.719505787400964e-22
-0.4764099050624999	-1.6448813304973712e-22
-0.4763488699062499	-1.5702701562865738e-22
-0.4762878347499999	-1.4956685546350323e-22
-0.4762267995937499	-1.4210726668753009e-22
-0.4761657644374999	-1.3464785032156897e-22
-0.4761047292812499	-1.2718819487618394e-22
-0.4760436941249999	-1.197278760233597e-22
-0.4759826589687499	-1.122664558082379e-22
-0.4759216238124999	-1.0480348256318643e-22
-0.4758605886562499	-9.73384927027317e-23
-0.4757995534999999	-8.987101457154894e-23
-0.4757385183437499	-8.240057308696378e-23
-0.4756774831874999	-7.492669398922145e-23
-0.4756164480312499	-6.744890868039579e-23
-0.4755554128749999	-5.996676119440388e-23
-0.4754943777187499	-5.2479816488984464e-23
-0.4754333425624999	-4.498766856843997e-23
-0.4753723074062499	-3.7489948605948915e-23
-0.4753112722499999	-2.998633353835089e-23
-0.4752502370937499	-2.2476554747847737e-23
-0.4751892019374999	-1.4960406402596273e-23
-0.4751281667812499	-7.437752935409207e-24
-0.4750671316249999	9.146500914623762e-26
-0.4750060964687499	7.627226342825802e-24
-0.4749450613124999	1.5169427126973115e-23
-0.4748840261562499	2.271787960437557e-23
-0.4748229909999999	3.027231206048604e-23
-0.4747619558437499	3.783237027713795e-23
-0.4747009206874999	4.539762134686232e-23
-0.4746398855312499	5.296755929050135e-23
-0.4745788503749999	6.054161210373267e-23
-0.4745178152187499	6.811915091593034e-23
-0.4744567800624999	7.569950127950673e-23
-0.4743957449062499	8.328195485643129e-23
-0.4743347097499999	9.086578105420884e-23
-0.4742736745937499	9.845024019230249e-23
-0.4742126394374999	1.0603459806199075e-22
-0.4741516042812499	1.1361814024316463e-22
-0.4740905691249999	1.2120018566001803e-22
-0.4740295339687499	1.2878009947702977e-22
-0.4739684988124999	1.3635730532181942e-22
-0.4739074636562499	1.4393129673635022e-22
-0.4738464284999999	1.5150164708743823e-22
-0.4737853933437499	1.5906801743496339e-22
-0.4737243581874999	1.6663016312646532e-22
-0.4736633230312499	1.7418793916065743e-22
-0.4736022878749999	1.8174130298354487e-22
-0.4735412527187499	1.8929031387100932e-22
-0.4734802175624999	1.9683512941106492e-22
-0.4734191824062499	2.0437600052466002e-22
-0.4733581472499999	2.119132651088307e-22
-0.4732971120937499	2.194473392836416e-22
-0.4732360769374999	2.2697870672925325e-22
-0.4731750417812499	2.345079064423365e-22
-0.4731140066249999	2.4203551838324304e-22
-0.4730529714687499	2.4956214766808653e-22
-0.4729919363124999	2.5708840804455496e-22
-0.4729309011562499	2.6461490457570133e-22
-0.4728698659999999	2.7214221641114943e-22
-0.4728088308437499	2.796708808086106e-22
-0.4727477956874999	2.872013776856421e-22
-0.4726867605312499	2.9473411398901474e-22
-0.4726257253749999	3.0226940941795895e-22
-0.4725646902187499	3.098074847715898e-22
-0.4725036550624999	3.17348452323801e-22
-0.4724426199062499	3.2489230822886995e-22
-0.4723815847499999	3.32438927390307e-22
-0.4723205495937499	3.3998806063982724e-22
-0.4722595144374999	3.475393350988171e-22
-0.4721984792812499	3.55092257890917e-22
-0.4721374441249999	3.626462216400811e-22
-0.4720764089687499	3.7020051188592917e-22
-0.4720153738124999	3.777543180454854e-22
