Time	Frequency
-0.5000154002500001	-0.7196726120166128
-0.49995436509375013	-0.7189161645833796
-0.49989332993750013	-0.718150318922944
-0.49983229478125013	-0.7173751044222576
-0.49977125962500013	-0.7165905586816956
-0.49971022446875013	-0.7157967262059743
-0.49964918931250013	-0.7149936567616991
-0.49958815415625013	-0.7141814033711343
-0.49952711900000013	-0.7133600194135284
-0.49946608384375013	-0.7125295551261228
-0.49940504868750013	-0.7116900543214235
-0.49934401353125013	-0.7108415515451278
-0.49928297837500013	-0.7099840695428629
-0.49922194321875013	-0.709117617070317
-0.49916090806250013	-0.7082421874931822
-0.49909987290625013	-0.7073577586892418
-0.49903883775000013	-0.7064642943044163
-0.49897780259375013	-0.7055617463373786
-0.49891676743750013	-0.7046500585149655
-0.49885573228125013	-0.7037291697311492
-0.49879469712500013	-0.7027990180121798
-0.49873366196875013	-0.7018595453769919
-0.49867262681250013	-0.7009107030030005
-0.49861159165625013	-0.6999524561089663
-0.49855055650000013	-0.6989847879572568
-0.49848952134375013	-0.6980077024813359
-0.49842848618750013	-0.6970212253725415
-0.49836745103125013	-0.6960254035666906
-0.49830641587500013	-0.6950203032927185
-0.49824538071875013	-0.6940060068595357
-0.49818434556250013	-0.6929826084855392
-0.49812331040625013	-0.6919502094124537
-0.49806227525000013	-0.6909089117247413
-0.49800124009375013	-0.6898588112136423
-0.49794020493750013	-0.6887999910192357
-0.49787916978125013	-0.6877325166894401
-0.49781813462500013	-0.6866564323208022
-0.49775709946875013	-0.6855717578794864
-0.49769606431250013	-0.684478488203295
-0.49763502915625013	-0.68337659395818
-0.49757399400000013	-0.6822660241702958
-0.49751295884375013	-0.6811467100314886
-0.49745192368750013	-0.6800185702859383
-0.49739088853125013	-0.6788815181766545
-0.49732985337500013	-0.6777354688534479
-0.49726881821875013	-0.6765803459510003
-0.49720778306250013	-0.6754160870719546
-0.49714674790625013	-0.6742426486494275
-0.49708571275000013	-0.6730600103305283
-0.49702467759375013	-0.6718681779784431
-0.49696364243750013	-0.6706671841315178
-0.49690260728125013	-0.6694570862986302
-0.49684157212500013	-0.6682379637835655
-0.49678053696875013	-0.6670099128194193
-0.49671950181250013	-0.6657730404118566
-0.49665846665625013	-0.6645274573328827
-0.49659743150000013	-0.663273270692524
-0.49653639634375013	-0.6620105771535493
-0.49647536118750013	-0.6607394572083409
-0.49641432603125013	-0.6594599705723964
-0.49635329087500013	-0.6581721526798596
-0.49629225571875013	-0.6568760125082759
-0.49623122056250013	-0.6555715328934008
-0.49617018540625013	-0.6542586736597102
-0.49610915025000013	-0.6529373762846213
-0.49604811509375013	-0.651607569322581
-0.49598707993750013	-0.6502691749118977
-0.49592604478125013	-0.6489221158757422
-0.49586500962500013	-0.6475663225464262
-0.49580397446875013	-0.6462017392206297
-0.49574293931250013	-0.644828329486285
-0.49568190415625013	-0.6434460797449262
-0.49562086900000013	-0.6420550015927196
-0.49555983384375013	-0.6406551329453053
-0.49549879868750013	-0.6392465364694583
-0.49543776353125013	-0.637829295192484
-0.49537672837500013	-0.6364035069753297
-0.49531569321875013	-0.6349692783151984
-0.49525465806250013	-0.6335267167827746
-0.49519362290625013	-0.632075923377769
-0.49513258775000013	-0.630616986338565
-0.49507155259375013	-0.6291499758293435
-0.49501051743750013	-0.6276749391704901
-0.49494948228125013	-0.6261918975461016
-0.49488844712500013	-0.6247008452739191
-0.49482741196875013	-0.6232017518038344
-0.49476637681250013	-0.6216945654598227
-0.49470534165625013	-0.6201792186840912
-0.49464430650000013	-0.6186556351035492
-0.49458327134375013	-0.6171237376070733
-0.49452223618750013	-0.6155834563296414
-0.49446120103125013	-0.6140347359467678
-0.49440016587500013	-0.6124775417890078
-0.49433913071875013	-0.6109118642876544
-0.49427809556250013	-0.6093377213650167
-0.49421706040625013	-0.6077551585108756
-0.49415602525000013	-0.6061642467875764
-0.49409499009375013	-0.6045650792519416
-0.49403395493750013	-0.6029577654500121
-0.49397291978125013	-0.6013424239326438
-0.49391188462500013	-0.5997191740170085
-0.49385084946875013	-0.5980881274523387
-0.49378981431250013	-0.5964493806164066
-0.49372877915625013	-0.5948030086233026
-0.49366774400000013	-0.5931490611868243
-0.49360670884375013	-0.5914875595800436
-0.49354567368750013	-0.5898184956473658
-0.49348463853125013	-0.5881418337389474
-0.49342360337500013	-0.586457515033011
-0.49336256821875013	-0.5847654630053799
-0.49330153306250013	-0.5830655895907881
-0.49324049790625013	-0.581357802716931
-0.49317946275000013	-0.5796420149209767
-0.49311842759375013	-0.5779181517222636
-0.49305739243750013	-0.5761861590227019
-0.49299635728125013	-0.5744460089481248
-0.49293532212500013	-0.5726977038840866
-0.49287428696875013	-0.5709412783823589
-0.49281325181250013	-0.5691767979050667
-0.49275221665625013	-0.5674043545550387
-0.49269118150000013	-0.5656240613200159
-0.49263014634375013	-0.5638360457655537
-0.49256911118750013	-0.562040442875321
-0.49250807603125013	-0.5602373869094727
-0.49244704087500013	-0.5584270027441357
-0.49238600571875013	-0.5566093974525593
-0.49232497056250013	-0.5547846538530478
-0.49226393540625013	-0.5529528268964405
-0.49220290025000013	-0.5511139417695556
-0.49214186509375013	-0.5492679934117911
-0.49208082993750013	-0.5474149480613077
-0.49201979478125013	-0.5455547467507195
-0.49195875962500013	-0.5436873113393763
-0.49189772446875013	-0.5418125527910246
-0.49183668931250013	-0.5399303792103772
-0.49177565415625013	-0.5380407031402941
-0.49171461900000013	-0.5361434491153615
-0.49165358384375013	-0.5342385605583487
-0.49159254868750013	-0.5323260053022815
-0.49153151353125013	-0.5304057797680138
-0.49147047837500013	-0.5284779104150946
-0.49140944321875013	-0.5265424517443937
-0.49134840806250013	-0.524599482819652
-0.49128737290625013	-0.522649103096707
-0.49122633775000013	-0.5206914263027567
-0.49116530259375013	-0.5187265731839793
-0.49110426743750013	-0.5167546641877395
-0.49104323228125013	-0.5147758122418129
-0.49098219712500013	-0.5127901167648697
-0.49092116196875013	-0.5107976584432655
-0.49086012681250013	-0.5087984943799421
-0.49079909165625013	-0.5067926556596895
-0.49073805650000013	-0.5047801479120265
-0.49067702134375013	-0.5027609534044046
-0.49061598618750013	-0.5007350341614595
-0.49055495103125013	-0.49870233682252585
-0.49049391587500013	-0.4966627991786242
-0.49043288071875013	-0.49461635747329524
-0.49037184556250013	-0.4925629538034848
-0.49031081040625013	-0.4905025429652303
-0.49024977525000013	-0.4884350982748317
-0.49018874009375013	-0.48636061609954623
-0.49012770493750013	-0.4842791183198257
-0.49006666978125013	-0.4821906522588157
-0.49000563462500013	-0.48009528836835
-0.48994459946875013	-0.4779931159721914
-0.48988356431250013	-0.47588423782311323
-0.48982252915625013	-0.4737687638038586
-0.48976149400000013	-0.47164680363659534
-0.48970045884375013	-0.4695184599912203
-0.48963942368750013	-0.4673838230886488
-0.48957838853125013	-0.46524296576357976
-0.48951735337500013	-0.4630959380871238
-0.48945631821875013	-0.4609427632511503
-0.48939528306250013	-0.45878343750669465
-0.48933424790625013	-0.45661793339758366
-0.48927321275000013	-0.4544462031494279
-0.48921217759375013	-0.45226818275878605
-0.48915114243750013	-0.4500837991083802
-0.48909010728125013	-0.4478929785893614
-0.48902907212500013	-0.4456956544918108
-0.48896803696875013	-0.44349177315309474
-0.48890700181250013	-0.4412812999333618
-0.48884596665625013	-0.43906422449048305
-0.48878493150000013	-0.43684056368482305
-0.48872389634375013	-0.43461036237916006
-0.48866286118750013	-0.4323736930574489
-0.48860182603125013	-0.4301306530780094
-0.48854079087500013	-0.427881359405731
-0.48847975571875013	-0.42562594275025817
-0.48841872056250013	-0.4233645414226636
-0.48835768540625013	-0.42109729378005084
-0.48829665025000013	-0.41882433029914584
-0.48823561509375013	-0.4165457673057571
-0.48817457993750013	-0.41426170202776097
-0.48811354478125013	-0.4119722081861581
-0.48805250962500013	-0.40967733263604816
-0.48799147446875013	-0.4073770938099749
-0.48793043931250013	-0.40507148283701866
-0.48786940415625013	-0.402760467235473
-0.48780836900000013	-0.40044399544327025
-0.48774733384375013	-0.3981220017883012
-0.48768629868750013	-0.3957944132230411
-0.48762526353125013	-0.39346115701833034
-0.48756422837500013	-0.39112216765078645
-0.48750319321875013	-0.3887773930298329
-0.48744215806250013	-0.38642679985440387
-0.48738112290625013	-0.38407037747148187
-0.48732008775000013	-0.3817081405872136
-0.48725905259375013	-0.37934013041575226
-0.48719801743750013	-0.376966413402394
-0.48713698228125013	-0.3745870779460631
-0.48707594712500013	-0.3722022300246524
-0.48701491196875013	-0.36981198786453456
-0.48695387681250013	-0.36741647586345827
-0.48689284165625013	-0.36501581839465735
-0.48683180650000013	-0.36261013334249437
-0.48677077134375013	-0.3601995256976556
-0.48670973618750013	-0.3577840829561991
-0.48664870103125013	-0.3553638726165905
-0.48658766587500013	-0.35293894069540577
-0.48652663071875013	-0.35050931121228873
-0.48646559556250013	-0.34807498679557974
-0.48640456040625013	-0.3456359508932671
-0.48634352525000013	-0.3431921716316831
-0.48628249009375013	-0.3407436061188876
-0.48622145493750013	-0.3382902058073729
-0.48616041978125013	-0.335831923174501
-0.48609938462500013	-0.33336871792356243
-0.48603834946875013	-0.33090056243711397
-0.48597731431250013	-0.3284274460429121
-0.48591627915625013	-0.3259493769715869
-0.48585524400000013	-0.3234663827518988
-0.48579420884375013	-0.3209785098413015
-0.48573317368750013	-0.31848582215609395
-0.48567213853125013	-0.31598839808046647
-0.48561110337500013	-0.3134863263184421
-0.48555006821875013	-0.3109797017349485
-0.48548903306250013	-0.3084686215219671
-0.48542799790625013	-0.30595318086723144
-0.48536696275000013	-0.3034334683087522
-0.48530592759375013	-0.30090956189886453
-0.48524489243750013	-0.29838152603652646
-0.48518385728125013	-0.29584940896864875
-0.48512282212500013	-0.2933132419570872
-0.48506178696875013	-0.2907730399325593
-0.48500075181250013	-0.28822880297816617
-0.48493971665625013	-0.2856805188691902
-0.48487868150000013	-0.28312816667963975
-0.48481764634375013	-0.28057172109557643
-0.48475661118750013	-0.27801115692231254
-0.48469557603125013	-0.27544645280929503
-0.48463454087500013	-0.2728775941969285
-0.48457350571875013	-0.27030457574141314
-0.48451247056250013	-0.2677274026058177
-0.48445143540625013	-0.2651460913274165
-0.48439040025000013	-0.2625606711849056
-0.48432936509375013	-0.2599711851839249
-0.48426832993750013	-0.25737768942107403
-0.48420729478125013	-0.2547802505841765
-0.48414625962500013	-0.25217894267156243
-0.48408522446875013	-0.2495738436337197
-0.48402418931250013	-0.2469650312525699
-0.48396315415625013	-0.2443525790095141
-0.48390211900000013	-0.24173655365056018
-0.48384108384375013	-0.2391170135418483
-0.48378004868750013	-0.23649400668589143
-0.48371901353125013	-0.23386756991514246
-0.48365797837500013	-0.2312377299975332
-0.48359694321875013	-0.22860450479509148
-0.48353590806250013	-0.2259679035914001
-0.48347487290625013	-0.22332792816935998
-0.48341383775000013	-0.2206845755558698
-0.48335280259375013	-0.21803784145739435
-0.48329176743750013	-0.21538772331888034
-0.48323073228125013	-0.21273422263465785
-0.48316969712500013	-0.2100773469114382
-0.48310866196875013	-0.20741711160718843
-0.48304762681250013	-0.20475354171895802
-0.48298659165625013	-0.20208667273228179
-0.48292555650000013	-0.1994165502302509
-0.48286452134375013	-0.19674322738433095
-0.48280348618750013	-0.19406676152820773
-0.48274245103125013	-0.19138721150496033
-0.48268141587500013	-0.1887046348277237
-0.48262038071875013	-0.1860190843155776
-0.48255934556250013	-0.18333060613386562
-0.48249831040625013	-0.18063923884098373
-0.48243727525000013	-0.17794501203017993
-0.48237624009375013	-0.17524794544065952
-0.48231520493750013	-0.17254804995654993
-0.48225416978125013	-0.16984533035883054
-0.48219313462500013	-0.16713978824963283
-0.48213209946875013	-0.16443142524289525
-0.48207106431250013	-0.1617202474512702
-0.48201002915625013	-0.15900626973678472
-0.48194899400000013	-0.15628951793076212
-0.48188795884375013	-0.15357002915795914
-0.48182692368750013	-0.1508478513043789
-0.48176588853125013	-0.14812304248641248
-0.48170485337500013	-0.145395670024319
-0.48164381821875013	-0.14266580780421056
-0.48158278306250013	-0.139933532204529
-0.48152174790625013	-0.137198917682341
-0.48146071275000013	-0.13446203246274543
-0.48139967759375013	-0.13172293432597584
-0.48133864243750013	-0.12898166778705464
-0.48127760728125013	-0.12623826351863565
-0.48121657212500013	-0.12349273850887721
-0.48115553696875013	-0.12074509710592786
-0.48109450181250013	-0.1179953341961802
-0.48103346665625013	-0.11524343899144898
-0.48097243150000013	-0.11248939820222634
-0.48091139634375013	-0.10973319935203356
-0.48085036118750013	-0.1069748348275117
-0.48078932603125013	-0.10421430636573453
-0.48072829087500013	-0.1014516288031759
-0.48066725571875013	-0.09868683229561852
-0.48060622056250013	-0.09591996357377687
-0.48054518540625013	-0.093151086643773
-0.48048415025000013	-0.090380281853035
-0.48042311509375013	-0.08760764268305529
-0.48036207993750013	-0.08483327201922357
-0.48030104478125013	-0.0820572791930459
-0.48024000962500013	-0.07927977611874554
-0.48017897446875013	-0.07650087148003619
-0.48011793931250013	-0.07372066464354818
-0.48005690415625013	-0.07093924030284779
-0.47999586900000013	-0.06815666374939391
-0.47993483384375013	-0.06537297716977515
-0.47987379868750013	-0.06258819709898068
-0.47981276353125013	-0.05980231369390588
-0.47975172837500013	-0.05701529315766903
-0.47969069321875013	-0.054227082695611176
-0.47962965806250013	-0.05143761651112346
-0.47956862290625013	-0.048646823087538094
-0.47950758775000013	-0.04585463363713009
-0.47944655259375013	-0.04306099064128197
-0.47938551743750013	-0.04026585636015206
-0.47932448228125013	-0.0374692204083726
-0.47926344712500013	-0.03467110456848515
-0.47920241196875013	-0.031871564435194635
-0.47914137681250013	-0.02907068887054184
-0.47908034165625013	-0.02626859756323893
-0.47901930650000013	-0.023465435554795733
-0.47895827134375013	-0.020661365585478878
-0.47889723618750013	-0.017856560359022253
-0.47883620103125013	-0.015051194069637083
-0.47877516587500013	-0.012245432632214306
-0.47871413071875013	-0.009439424112646425
-0.47865309556250013	-0.006633290465812129
-0.47859206040625013	-0.003827120846064585
-0.47853102525000013	-0.0010209666010064457
-0.47846999009375013	0.0017851616208711472
-0.47840895493750013	0.004591293652959865
-0.47834791978125013	0.007397495742679951
-0.47828688462500013	0.010203863705956804
-0.47822584946875013	0.013010514872719104
-0.47816481431250013	0.015817578487353236
-0.47810377915625013	0.018625184024788008
-0.47804274400000013	0.021433448427843622
-0.47798170884375013	0.024242464488487245
-0.47792067368750013	0.027052291880077312
-0.47785963853125013	0.029862950694614424
-0.47779860337500013	0.032674418347163316
-0.47773756821875013	0.035486630806064394
-0.47767653306250013	0.0382994872731068
-0.47761549790625013	0.04111285767518799
-0.47755446275000013	0.04392659253263462
-0.47749342759375013	0.04674053402362313
-0.47743239243750013	0.049554527645071254
-0.47737135728125013	0.0523684345525486
-0.47731032212500013	0.05518214377556382
-0.47724928696875013	0.05799558220122622
-0.47718825181250013	0.060808720082608105
-0.47712721665625013	0.06362156785234863
-0.47706618150000013	0.06643415504227376
-0.47700514634375013	0.06924649041209516
-0.47694411118750013	0.07205852390620975
-0.47688307603125013	0.07487013092217074
-0.47682204087500013	0.07768111805395553
-0.47676100571875013	0.0804912409466542
-0.47669997056250013	0.08330022850636527
-0.47663893540625013	0.08610780975698198
-0.47657790025000013	0.08891374019136473
-0.47651686509375013	0.09171782431343889
-0.47645582993750013	0.0945199332585616
-0.47639479478125013	0.09732001811194908
-0.47633375962500013	0.1001181172795461
-0.47627272446875013	0.10291435588712207
-0.47621168931250013	0.10570893762559073
-0.47615065415625013	0.10850213085227346
-0.47608961900000013	0.11129425041493984
-0.47602858384375013	0.11408563571547894
-0.47596754868750013	0.11687662631156824
-0.47590651353125013	0.11966753785235788
-0.47584547837500013	0.12245863977022046
-0.47578444321875013	0.12525013514666497
-0.47572340806250013	0.12804214530849653
-0.47566237290625013	0.13083470140262038
-0.47560133775000013	0.13362774232076227
-0.47554030259375013	0.13642111782402955
-0.47547926743750013	0.13921459690874366
-0.47541823228125013	0.14200788207737952
-0.47535719712500013	0.1448006286410884
-0.47529616196875013	0.14759246622091188
-0.47523512681250013	0.1503830208310864
-0.47517409165625013	0.15317193758178355
-0.47511305650000013	0.15595890250227412
-0.47505202134375013	0.158743660583201
-0.47499098618750013	0.16152602902860924
-0.47492995103125013	0.16430590611803747
-0.47486891587500013	0.16708327474057608
-0.47480788071875013	0.16985819963801485
-0.47474684556250013	0.17263081871119054
-0.47468581040625013	0.1754013292134347
-0.47462477525000013	0.17816997064439377
-0.47456374009375013	0.18093700538585494
-0.47450270493750013	0.18370269734922465
-0.47444166978125013	0.1864672914264469
-0.47438063462500013	0.18923099562689255
-0.47431959946875013	0.19199396510215097
-0.47425856431250013	0.19475628908809425
-0.47419752915625013	0.19751798278432722
-0.47413649400000013	0.20027898491000354
-0.47407545884375013	0.20303916127659224
-0.47401442368750013	0.20579831343805716
-0.47395338853125013	0.20855619083030438
-0.47389235337500013	0.2113125061095074
-0.47383131821875013	0.2140669527183754
-0.47377028306250013	0.2168192223551917
-0.47370924790625013	0.21956902173993728
-0.47364821275000013	0.22231608932067437
-0.47358717759375013	0.2250602100621959
-0.47352614243750013	0.22780122566422756
-0.47346510728125013	0.23053904048020696
-0.47340407212500013	0.23327362381474898
-0.47334303696875013	0.23600500806384053
-0.47328200181250013	0.2387332827054068
-0.47322096665625013	0.2414585842816502
-0.47315993150000013	0.2441810830915915
-0.47309889634375013	0.24690096850819365
-0.47303786118750013	0.24961843389862776
-0.47297682603125013	0.2523336609319606
-0.47291579087500013	0.2550468041616007
-0.47285475571875013	0.257757978023941
-0.47279372056250013	0.2604672475486944
-0.47273268540625013	0.2631746223449623
-0.47267165025000013	0.26588005319463437
-0.47261061509375013	0.26858343217856223
-0.47254957993750013	0.2712845976940863
-0.47248854478125013	0.2739833434552126
-0.47242750962500013	0.2766794294606032
-0.47236647446875013	0.27937259428468497
-0.47230543931250013	0.28206256851987105
-0.47224440415625013	0.284749088709226
-0.47218336900000013	0.287431910912574
-0.47212233384375013	0.29011082311193653
-0.47206129868750013	0.29278565582013466
-0.47200026353125013	0.2954562894442144
-0.47193922837500013	0.29812265739069516
-0.47187819321875013	0.30078474636797586
-0.47181715806250013	0.3034425943063441
-0.47175612290625013	0.3060962840126085
-0.47169508775000013	0.3087459331847531
-0.47163405259375013	0.311391683040696
-0.47157301743750013	0.3140336860476313
-0.47151198228125013	0.3166720932217166
-0.47145094712500013	0.31930704147114525
-0.47138991196875013	0.3219386409925734
-0.47132887681250013	0.324566964370861
-0.47126784165625013	0.3271920389301617
-0.47120680650000013	0.3298138419222269
-0.47114577134375013	0.33243229899819726
-0.47108473618750013	0.3350472869851896
-0.47102370103125013	0.33765863978455296
-0.47096266587500013	0.34026615590178017
-0.47090163071875013	0.342869608139031
-0.47084059556250013	0.3454687558376738
-0.47077956040625013	0.3480633585312952
-0.47071852525000013	0.35065319013405005
-0.47065749009375013	0.35323805229246835
-0.47059645493750013	0.35581778484683346
-0.47053541978125013	0.35839227328771894
-0.47047438462500013	0.3609614541032475
