Time	Frequency
-0.50002179284375	0.6719292163404408
-0.49996075768750003	0.6703253196191313
-0.49989972253125003	0.6687110707331301
-0.49983868737500003	0.6670865002780976
-0.49977765221875003	0.6654516385552323
-0.49971661706250003	0.6638065152250894
-0.49965558190625003	0.6621511593430152
-0.49959454675000003	0.6604855990745778
-0.49953351159375003	0.6588098610765937
-0.49947247643750003	0.6571239701101603
-0.49941144128125003	0.6554279490032122
-0.49935040612500003	0.6537218188230307
-0.49928937096875003	0.652005599064021
-0.49922833581250003	0.6502793077709204
-0.49916730065625003	0.6485429616609096
-0.49910626550000003	0.6467965762228163
-0.49904523034375003	0.6450401659154972
-0.49898419518750003	0.6432737445098867
-0.49892316003125003	0.6414973253810698
-0.49886212487500003	0.6397109218944516
-0.49880108971875003	0.637914548022442
-0.49874005456250003	0.6361082188433398
-0.49867901940625003	0.6342919508096496
-0.49861798425000003	0.6324657621736419
-0.49855694909375003	0.630629673580396
-0.49849591393750003	0.6287837083401768
-0.49843487878125003	0.6269278924366712
-0.49837384362500003	0.625062254585138
-0.49831280846875003	0.6231868261291601
-0.49825177331250003	0.6213016407452452
-0.49819073815625003	0.6194067342192446
-0.49812970300000003	0.6175021442148776
-0.49806866784375003	0.6155879098169474
-0.49800763268750003	0.6136640710045165
-0.49794659753125003	0.611730668208164
-0.49788556237500003	0.6097877416245104
-0.49782452721875003	0.6078353303439703
-0.49776349206250003	0.605873471780956
-0.49770245690625003	0.6039022012797797
-0.49764142175000003	0.6019215515911982
-0.49758038659375003	0.5999315522989179
-0.49751935143750003	0.5979322293830437
-0.49745831628125003	0.5959236050806567
-0.49739728112500003	0.5939056979093496
-0.49733624596875003	0.5918785227657692
-0.49727521081250003	0.5898420914611917
-0.49721417565625003	0.58779641355262
-0.49715314050000003	0.5857414968862347
-0.49709210534375003	0.583677347981063
-0.49703107018750003	0.5816039727216672
-0.49697003503125003	0.5795213773623908
-0.49690899987500003	0.5774295694466269
-0.49684796471875003	0.575328558539382
-0.49678692956250003	0.5732183570456459
-0.49672589440625003	0.571098981077971
-0.49666485925000003	0.5689704511402816
-0.49660382409375003	0.566832792679706
-0.49654278893750003	0.5646860366906121
-0.49648175378125003	0.5625302200774062
-0.49642071862500003	0.5603653852995611
-0.49635968346875003	0.5581915795902666
-0.49629864831250003	0.5560088544153431
-0.49623761315625003	0.553817265206748
-0.49617657800000003	0.5516168707907881
-0.49611554284375003	0.5494077322459305
-0.49605450768750003	0.5471899116375826
-0.49599347253125003	0.5449634709144306
-0.49593243737500003	0.5427284707460405
-0.49587140221875003	0.5404849693303847
-0.49581036706250003	0.5382330214490928
-0.49574933190625003	0.5359726777856026
-0.49568829675000003	0.5337039843262387
-0.49562726159375003	0.5314269817427922
-0.49556622643750003	0.5291417047691465
-0.49550519128125003	0.5268481816588881
-0.49544415612500003	0.524546434092564
-0.49538312096875003	0.5222364777429197
-0.49532208581250003	0.5199183230015784
-0.49526105065625003	0.5175919755286309
-0.49520001550000003	0.5152574369632423
-0.49513898034375003	0.512914705886002
-0.49507794518750003	0.5105637787908837
-0.49501691003125003	0.5082046513185675
-0.49495587487500003	0.505837319843539
-0.49489483971875003	0.5034617829364068
-0.49483380456250003	0.5010780426220728
-0.49477276940625003	0.49868610549699854
-0.49471173425000003	0.496285983596457
-0.49465069909375003	0.4938776951439577
-0.49458966393750003	0.49146126519400174
-0.49452862878125003	0.48903672610743004
-0.49446759362500003	0.48660411793110087
-0.49440655846875003	0.48416348840548257
-0.49434552331250003	0.4817148923280195
-0.49428448815625003	0.4792583907207237
-0.49422345300000003	0.476794050137406
-0.49416241784375003	0.4743219416976848
-0.49410138268750003	0.4718421398211488
-0.49404034753125003	0.46935472106789783
-0.49397931237500003	0.46685976288617786
-0.49391827721875003	0.4643573419961827
-0.49385724206250003	0.46184753273745266
-0.49379620690625003	0.4593304057447632
-0.49373517175000003	0.4568060268022434
-0.49367413659375003	0.45427445564758223
-0.49361310143750003	0.4517357450510871
-0.49355206628125003	0.4491899402664229
-0.49349103112500003	0.4466370785053168
-0.49342999596875003	0.44407718865836737
-0.49336896081250003	0.44151029151037274
-0.49330792565625003	0.43893640019599117
-0.49324689050000003	0.4363555207748503
-0.49318585534375003	0.4337676530575201
-0.49312482018750003	0.4311727919215613
-0.49306378503125003	0.42857092901795374
-0.49300274987500003	0.42596205429903633
-0.49294171471875003	0.42334615724799357
-0.49288067956250003	0.42072322839239995
-0.49281964440625003	0.41809326130293767
-0.49275860925000003	0.41545625439269485
-0.49269757409375003	0.41281221217846825
-0.49263653893750003	0.41016114649117746
-0.49257550378125003	0.4075030776369207
-0.49251446862500003	0.40483803499129295
-0.49245343346875003	0.40216605720418686
-0.49239239831250003	0.3994871925588357
-0.49233136315625003	0.39680149915323426
-0.49227032800000003	0.3941090442837497
-0.49220929284375003	0.39140990331435876
-0.49214825768750003	0.3887041586034137
-0.49208722253125003	0.3859918984925629
-0.49202618737500003	0.38327321591349406
-0.49196515221875003	0.3805482064490221
-0.49190411706250003	0.377816966345292
-0.49184308190625003	0.3750795907327194
-0.49178204675000003	0.3723361715671098
-0.49172101159375003	0.3695867953103072
-0.49165997643750003	0.3668315413052435
-0.49159894128125003	0.36407048098485895
-0.49153790612500003	0.3613036770103279
-0.49147687096875003	0.3585311821706118
-0.49141583581250003	0.3557530385750811
-0.49135480065625003	0.3529692773492456
-0.49129376550000003	0.3501799189701149
-0.49123273034375003	0.34738497425636417
-0.49117169518750003	0.34458444557267337
-0.49111066003125003	0.3417783280927931
-0.49104962487500003	0.3389666113320157
-0.49098858971875003	0.33614928093278473
-0.49092755456250003	0.3333263207477669
-0.49086651940625003	0.33049771504377223
-0.49080548425000003	0.3276634503631638
-0.49074444909375003	0.3248235172478826
-0.49068341393750003	0.32197791209468385
-0.49062237878125003	0.3191266387586935
-0.49056134362500003	0.3162697098696849
-0.49050030846875003	0.3134071480367875
-0.49043927331250003	0.31053898662136575
-0.49037823815625003	0.30766526984224635
-0.49031720300000003	0.3047860522758008
-0.49025616784375003	0.30190139814214156
-0.49019513268750003	0.2990113805819498
-0.49013409753125003	0.2961160804655447
-0.49007306237500003	0.29321558478722415
-0.49001202721875003	0.29030998510298633
-0.48995099206250003	0.28739937578811026
-0.48988995690625003	0.2844838518487053
-0.48982892175000003	0.28156350673649283
-0.48976788659375003	0.2786384305472573
-0.48970685143750003	0.27570870839345585
-0.48964581628125003	0.2727744188980547
-0.48958478112500003	0.26983563297440344
-0.48952374596875003	0.26689241292200777
-0.48946271081250003	0.2639448117594578
-0.48940167565625003	0.26099287278404343
-0.48934064050000003	0.2580366296753587
-0.48927960534375003	0.25507610730257807
-0.48921857018750003	0.2521113227782354
-0.48915753503125003	0.24914228654096823
-0.48909649987500003	0.24616900379380013
-0.48903546471875003	0.24319147620243484
-0.48897442956250003	0.24020970365852548
-0.48891339440625003	0.2372236861438397
-0.48885235925000003	0.23423342541536676
-0.48879132409375003	0.2312389264908158
-0.48873028893750003	0.22824019922877326
-0.48866925378125003	0.22523725982680562
-0.48860821862500003	0.2222301319054102
-0.48854718346875003	0.2192188472031802
-0.48848614831250003	0.21620344595640525
-0.48842511315625003	0.21318397687927895
-0.48836407800000003	0.2101604968411566
-0.48830304284375003	0.20713307037663253
-0.48824200768750003	0.20410176877978306
-0.48818097253125003	0.20106666879973348
-0.48811993737500003	0.19802785141805232
-0.48805890221875003	0.19498540061632985
-0.48799786706250003	0.19193940162327425
-0.48793683190625003	0.18888993870399662
-0.48787579675000003	0.18583709332449272
-0.48781476159375003	0.1827809431361441
-0.48775372643750003	0.17972156099832715
-0.48769269128125003	0.17665901374268242
-0.48763165612500003	0.17359336141182063
-0.48757062096875003	0.17052465698550287
-0.48750958581250003	0.16745294604550792
-0.48744855065625003	0.16437826655867954
-0.48738751550000003	0.16130064926177629
-0.48732648034375003	0.15822011850399903
-0.48726544518750003	0.15513669333631577
-0.48720441003125003	0.15205038893426723
-0.48714337487500003	0.14896121807083879
-0.48708233971875003	0.14586919235876505
-0.48702130456250003	0.1427743235248627
-0.48696026940625003	0.13967662490030597
-0.48689923425000003	0.13657611289887917
-0.48683819909375003	0.13347280833144617
-0.48677716393750003	0.1303667376461744
-0.48671612878125003	0.12725793390901066
-0.48665509362500003	0.12414643731091816
-0.48659405846875003	0.12103229540987163
-0.48653302331250003	0.11791556310274093
-0.48647198815625003	0.11479630226545523
-0.48641095300000003	0.11167458133275981
-0.48634991784375003	0.10855047469719213
-0.48628888268750003	0.1054240616153824
-0.48622784753125003	0.10229542485799775
-0.48616681237500003	0.09916464938386516
-0.48610577721875003	0.09603182097810682
-0.48604474206250003	0.09289702472908229
-0.48598370690625003	0.08976034336866762
-0.48592267175000003	0.08662185586398667
-0.48586163659375003	0.08348163636205518
-0.48580060143750003	0.080339753030086
-0.48573956628125003	0.07719626684804316
-0.48567853112500003	0.07405123091810203
-0.48561749596875003	0.07090469033472444
-0.48555646081250003	0.06775668220849708
-0.48549542565625003	0.06460723591408243
-0.48543439050000003	0.06145637379904823
-0.48537335534375003	0.05830411217187558
-0.48531232018750003	0.05515046250213719
-0.48525128503125003	0.05199543266818264
-0.48519024987500003	0.04883902813248964
-0.48512921471875003	0.04568125337681041
-0.48506817956250003	0.04252211358418323
-0.48500714440625003	0.03936161640855903
-0.48494610925000003	0.036199773790252354
-0.48488507409375003	0.03303660354923157
-0.48482403893750003	0.029872130623713324
-0.48476300378125003	0.026706388113798968
-0.48470196862500003	0.023539418169298762
-0.48464093346875003	0.020371272391929495
-0.48457989831250003	0.017202011636595318
-0.48451886315625003	0.014031705507184156
-0.48445782800000003	0.01086043171586294
-0.48439679284375003	0.007688275205841116
-0.48433575768750003	0.004515326879060085
-0.48427472253125003	0.0013416820572719982
-0.48421368737500003	-0.0018325611207098815
-0.48415265221875003	-0.0050073034889054815
-0.48409161706250003	-0.008182446922787346
-0.48403058190625003	-0.011357896376591306
-0.48396954675000003	-0.014533561576859625
-0.48390851159375003	-0.017709358556499938
-0.48384747643750003	-0.02088521120194803
-0.48378644128125003	-0.024061052504641463
-0.48372540612500003	-0.02723682538160809
-0.48366437096875003	-0.030412483262039436
-0.48360333581250003	-0.03358799032226058
-0.48354230065625003	-0.036763321047829055
-0.48348126550000003	-0.03993845930492298
-0.48342023034375003	-0.043113397267703225
-0.48335919518750003	-0.04628813408003092
-0.48329816003125003	-0.049462674249457855
-0.48323712487500003	-0.0526370259937367
-0.48317608971875003	-0.05581119941145898
-0.48311505456250003	-0.05898520436562286
-0.48305401940625003	-0.0621590483645008
-0.48299298425000003	-0.06533273457294053
-0.48293194909375003	-0.06850625978867553
-0.48287091393750003	-0.07167961255372629
-0.48280987878125003	-0.07485277169168224
-0.48274884362500003	-0.0780257051151935
-0.48268780846875003	-0.08119836887693409
-0.48262677331250003	-0.08437070694604748
-0.48256573815625003	-0.08754265177662891
-0.48250470300000003	-0.0907141251215006
-0.48244366784375003	-0.09388503892400078
-0.48238263268750003	-0.09705529649232696
-0.48232159753125003	-0.10022479411010424
-0.48226056237500003	-0.10339342313714182
-0.48219952721875003	-0.10656107234946302
-0.48213849206250003	-0.10972763029744285
-0.48207745690625003	-0.11289298770740493
-0.48201642175000003	-0.11605703981090307
-0.48195538659375003	-0.11921968838125395
-0.48189435143750003	-0.12238084355731382
-0.48183331628125003	-0.12554042567919288
-0.48177228112500003	-0.12869836686341743
-0.48171124596875003	-0.13185461177408025
-0.48165021081250003	-0.13500911783370043
-0.48158917565625003	-0.13816185551890922
-0.48152814050000003	-0.14131280823682202
-0.48146710534375003	-0.14446197111097495
-0.48140607018750003	-0.14760934933407907
-0.48134503503125003	-0.15075495644380815
-0.48128399987500003	-0.15389881202275507
-0.48122296471875003	-0.15704093893162446
-0.48116192956250003	-0.1601813605924035
-0.48110089440625003	-0.1633200983864924
-0.48103985925000003	-0.16645716895140258
-0.48097882409375003	-0.16959258152724352
-0.48091778893750003	-0.17272633565474615
-0.48085675378125003	-0.17585841917184647
-0.48079571862500003	-0.1789888066220094
-0.48073468346875003	-0.18211745831316983
-0.48067364831250003	-0.18524431994119417
-0.48061261315625003	-0.1883693226214073
-0.48055157800000003	-0.19149238331994678
-0.48049054284375003	-0.19461340589999263
-0.48042950768750003	-0.19773228277466778
-0.48036847253125003	-0.20084889695995556
-0.48030743737500003	-0.2039631245988821
-0.48024640221875003	-0.20707483786697417
-0.48018536706250003	-0.2101839081207361
-0.48012433190625003	-0.21329020920120292
-0.48006329675000003	-0.21639362063649537
-0.48000226159375003	-0.219494030755805
-0.47994122643750003	-0.22259133960617053
-0.47988019128125003	-0.22568546133011336
-0.47981915612500003	-0.22877632601533698
-0.47975812096875003	-0.23186388098699637
-0.47969708581250003	-0.23494809137985043
-0.47963605065625003	-0.2380289400498612
-0.47957501550000003	-0.24110642686293313
-0.47951398034375003	-0.24418056731208537
-0.47945294518750003	-0.24725139046981137
-0.47939191003125003	-0.25031893636396013
-0.47933087487500003	-0.2533832529060524
-0.47926983971875003	-0.25644439234252014
-0.47920880456250003	-0.25950240726684976
-0.47914776940625003	-0.26255734653781626
-0.47908673425000003	-0.2656092513901186
-0.47902569909375003	-0.2686581517399082
-0.47896466393750003	-0.27170406266632785
-0.47890362878125003	-0.2747469813854415
-0.47884259362500003	-0.27778688507686816
-0.47878155846875003	-0.2808237294942183
-0.47872052331250003	-0.28385744823314973
-0.47865948815625003	-0.28688795276798906
-0.47859845300000003	-0.2899151333535358
-0.47853741784375003	-0.2929388607649499
-0.47847638268750003	-0.2959589888612946
-0.47841534753125003	-0.29897535802632985
-0.47835431237500003	-0.3019877992596045
-0.47829327721875003	-0.30499613846173346
-0.47823224206250003	-0.3080002009214092
-0.47817120690625003	-0.31099981628241846
-0.47811017175000003	-0.31399482358868586
-0.47804913659375003	-0.3169850757325404
-0.47798810143750003	-0.3199704433631055
-0.47792706628125003	-0.322950818482053
-0.47786603112500003	-0.3259261174057416
-0.47780499596875003	-0.32889628263955223
-0.47774396081250003	-0.33186128360304873
-0.47768292565625003	-0.3348211163679258
-0.47762189050000003	-0.33777580243727584
-0.47756085534375003	-0.3407253865767491
-0.47749982018750003	-0.34366993378926813
-0.47743878503125003	-0.3466095255470186
-0.47737774987500003	-0.34954425518173055
-0.47731671471875003	-0.35247422233331244
-0.47725567956250003	-0.35539952705242583
-0.47719464440625003	-0.3583202642359379
-0.47713360925000003	-0.36123651826442776
-0.47707257409375003	-0.364148357684595
-0.47701153893750003	-0.3670558303250508
-0.47695050378125003	-0.3699589591511619
-0.47688946862500003	-0.37285773904394837
-0.47682843346875003	-0.37575213468709207
-0.47676739831250003	-0.3786420795656345
-0.47670636315625003	-0.3815274761846931
-0.47664532800000003	-0.38440819757873795
-0.47658429284375003	-0.38728408999004654
-0.47652325768750003	-0.3901549766905973
-0.47646222253125003	-0.39302066281958076
-0.47640118737500003	-0.3958809410333211
-0.47634015221875003	-0.3987355978298072
-0.47627911706250003	-0.4015844201872432
-0.47621808190625003	-0.4044272021819735
-0.47615704675000003	-0.40726375147701666
-0.47609601159375003	-0.41009389536018
-0.47603497643750003	-0.41291748594805644
-0.47597394128125003	-0.4157344045243901
-0.47591290612500003	-0.41854456498867365
-0.47585187096875003	-0.42134791613818073
-0.47579083581250003	-0.4241444425208984
-0.47572980065625003	-0.42693416380715304
-0.47566876550000003	-0.4297171326801479
-0.47560773034375003	-0.4324934312453902
-0.47554669518750003	-0.435263166240792
-0.47548566003125003	-0.4380264632894344
-0.47542462487500003	-0.4407834602907208
-0.47536358971875003	-0.4435343003380185
-0.47530255456250003	-0.4462791244572776
-0.47524151940625003	-0.449018064363386
-0.47518048425000003	-0.4517512356740726
-0.47511944909375003	-0.45447873172422065
-0.47505841393750003	-0.45720061809366863
-0.47499737878125003	-0.4599169284378837
-0.47493634362500003	-0.46262766178934556
-0.47487530846875003	-0.46533278112797816
-0.47481427331250003	-0.468032213440038
-0.47475323815625003	-0.4707258513120506
-0.47469220300000003	-0.4734135558383294
-0.47463116784375003	-0.4760951609337168
-0.47457013268750003	-0.47877047901078745
-0.47450909753125003	-0.4814393075420487
-0.47444806237500003	-0.48410143614359963
-0.47438702721875003	-0.48675665411557567
-0.47432599206250003	-0.4894047582101434
-0.47426495690625003	-0.49204555998903543
-0.47420392175000003	-0.4946788922002832
-0.47414288659375003	-0.4973046141003981
-0.47408185143750003	-0.49992261562205303
-0.47402081628125003	-0.5025328198474371
-0.47395978112500003	-0.5051351831321278
-0.47389874596875003	-0.5077296920690466
-0.47383771081250003	-0.510316355410192
-0.47377667565625003	-0.5128951894931961
-0.47371564050000003	-0.515466201503026
-0.47365460534375003	-0.5180293787044621
-0.47359357018750003	-0.5205846860236955
-0.47353253503125003	-0.5231320685535045
-0.47347149987500003	-0.5256714562379935
-0.47341046471875003	-0.5282027698282169
-0.47334942956250003	-0.5307259276460073
-0.47328839440625003	-0.5332408524186425
-0.47322735925000003	-0.5357474773060689
-0.47316632409375003	-0.5382457508293514
-0.47310528893750003	-0.5407356409056823
-0.47304425378125003	-0.5432171380169893
-0.47298321862500003	-0.5456902570043051
-0.47292218346875003	-0.5481550370426149
-0.47286114831250003	-0.5506115401688817
-0.47280011315625003	-0.5530598488323384
-0.47273907800000003	-0.5555000623287849
-0.47267804284375003	-0.5579322920573835
-0.47261700768750003	-0.5603566559579315
-0.47255597253125003	-0.5627732724962968
-0.47249493737500003	-0.5651822544933689
-0.47243390221875003	-0.5675837029776728
-0.47237286706250003	-0.5699777012220708
-0.47231183190625003	-0.5723643094246469
-0.47225079675000003	-0.5747435603703471
-0.47218976159375003	-0.5771154560607623
-0.47212872643750003	-0.5794799654096394
-0.47206769128125003	-0.5818370231989886
-0.47200665612500003	-0.5841865303713427
-0.47194562096875003	-0.5865283556557976
-0.47188458581250003	-0.5888623384834878
-0.47182355065625003	-0.5911882930764824
-0.47176251550000003	-0.5935060136042171
-0.47170148034375003	-0.5958152802373022
-0.47164044518750003	-0.5981158657086914
-0.47157941003125003	-0.6004075420519348
-0.47151837487500003	-0.602690087367109
-0.47145733971875003	-0.6049632924345725
-0.47139630456250003	-0.6072269669442951
-0.47133526940625003	-0.6094809450216448
-0.47127423425000003	-0.6117250897044442
-0.47121319909375003	-0.6139592962471144
-0.47115216393750003	-0.616183494242333
-0.47109112878125003	-0.6183976483763931
-0.47103009362500003	-0.6206017577575991
-0.47096905846875003	-0.6227958540857849
-0.47090802331250003	-0.6249799986626455
-0.47084698815625003	-0.627154278106047
-0.47078595300000003	-0.6293187991549154
-0.47072491784375003	-0.6314736829241446
-0.47066388268750003	-0.6336190585578005
-0.47060284753125003	-0.635755056494143
-0.47054181237500003	-0.6378818017986713
-0.47048077721875003	-0.6399994078364892
-0.47041974206250003	-0.6421079705567938
-0.47035870690625003	-0.644207563555306
-0.47029767175000003	-0.64629823393199
