Time	Frequency
-0.50006102759375	0.7327739240447366
-0.49999999243750004	0.7343073156990939
-0.49993895728125004	0.7358288389463388
-0.49987792212500004	0.7373384859073914
-0.49981688696875004	0.7388362470300575
-0.49975585181250004	0.7403221097834398
-0.49969481665625004	0.7417960576149608
-0.49963378150000004	0.7432580691683545
-0.49957274634375004	0.7447081177238176
-0.49951171118750004	0.7461461710164401
-0.49945067603125004	0.7475721914941046
-0.49938964087500004	0.7489861369339004
-0.49932860571875004	0.7503879613913987
-0.49926757056250004	0.7517776164044914
-0.49920653540625004	0.7531550523266648
-0.49914550025000004	0.7545202197518227
-0.49908446509375004	0.7558730709660695
-0.49902342993750004	0.7572135613053091
-0.49896239478125004	0.7585416503356441
-0.49890135962500004	0.7598573028118163
-0.49884032446875004	0.7611604893267979
-0.49877928931250004	0.7624511865468372
-0.49871825415625004	0.7637293770638062
-0.49865721900000004	0.764995048944957
-0.49859618384375004	0.7662481949397795
-0.49853514868750004	0.7674888113404853
-0.49847411353125004	0.7687168966314456
-0.49841307837500004	0.7699324500378312
-0.49835204321875004	0.7711354700351413
-0.49829100806250004	0.7723259529302091
-0.49822997290625004	0.7735038915955235
-0.49816893775000004	0.7746692743833032
-0.49810790259375004	0.77582208432019
-0.49804686743750004	0.776962298688995
-0.49798583228125004	0.7780898890084812
-0.49792479712500004	0.7792048214201401
-0.49786376196875004	0.7803070574657787
-0.49780272681250004	0.7813965551732592
-0.49774169165625004	0.7824732703837911
-0.49768065650000004	0.7835371582530896
-0.49761962134375004	0.784588174807702
-0.49755858618750004	0.7856262784302191
-0.49749755103125004	0.7866514311979417
-0.49743651587500004	0.7876636000126445
-0.49737548071875004	0.7886627574120322
-0.49731444556250004	0.7896488819711853
-0.49725341040625004	0.790621958295359
-0.49719237525000004	0.7915819766421405
-0.49713134009375004	0.7925289321735431
-0.49707030493750004	0.7934628238536345
-0.49700926978125004	0.7943836530816754
-0.49694823462500004	0.7952914221822213
-0.49688719946875004	0.7961861328508439
-0.49682616431250004	0.7970677846489163
-0.49676512915625004	0.7979363736724252
-0.49670409400000004	0.7987918914945858
-0.49664305884375004	0.7996343244238605
-0.49658202368750004	0.8004636531334318
-0.49652098853125004	0.8012798527187243
-0.49645995337500004	0.8020828931738366
-0.49639891821875004	0.8028727402582931
-0.49633788306250004	0.8036493567123676
-0.49627684790625004	0.8044127037178447
-0.49621581275000004	0.8051627424956481
-0.49615477759375004	0.8058994359369296
-0.49609374243750004	0.8066227501344329
-0.49603270728125004	0.8073326557201355
-0.49597167212500004	0.8080291289612203
-0.49591063696875004	0.8087121525193258
-0.49584960181250004	0.8093817157652333
-0.49578856665625004	0.8100378146251028
-0.49572753150000004	0.8106804509962009
-0.49566649634375004	0.8113096317694117
-0.49560546118750004	0.81192536748468
-0.49554442603125004	0.8125276707076662
-0.49548339087500004	0.8131165542992296
-0.49542235571875004	0.8136920297022572
-0.49536132056250004	0.8142541052553183
-0.49530028540625004	0.8148027845599235
-0.49523925025000004	0.8153380651250888
-0.49517821509375004	0.8158599375594111
-0.49511717993750004	0.8163683852647557
-0.49505614478125004	0.8168633844954483
-0.49499510962500004	0.817344904912979
-0.49493407446875004	0.8178129106672847
-0.49487303931250004	0.8182673618218541
-0.49481200415625004	0.8187082160447138
-0.49475096900000004	0.8191354305354102
-0.49468993384375004	0.8195489640709412
-0.49462889868750004	0.8199487789983577
-0.49456786353125004	0.8203348430639452
-0.49450682837500004	0.8207071310102242
-0.49444579321875004	0.8210656257278162
-0.49438475806250004	0.8214103187583033
-0.49432372290625004	0.8217412102752891
-0.49426268775000004	0.8220583087418044
-0.49420165259375004	0.822361630092159
-0.49414061743750004	0.8226511962531958
-0.49407958228125004	0.8229270331641804
-0.49401854712500004	0.823189168614183
-0.49395751196875004	0.8234376300925339
-0.49389647681250004	0.8236724426376704
-0.49383544165625004	0.8238936267685075
-0.49377440650000004	0.8241011967841915
-0.49371337134375004	0.8242951594632418
-0.49365233618750004	0.8244755130790435
-0.49359130103125004	0.824642246940786
-0.49353026587500004	0.8247953416950347
-0.49346923071875004	0.8249347703260008
-0.49340819556250004	0.8250604995390795
-0.49334716040625004	0.8251724914376218
-0.49328612525000004	0.825270705568589
-0.49322509009375004	0.8253551011257084
-0.49316405493750004	0.8254256391955708
-0.49310301978125004	0.8254822849880344
-0.49304198462500004	0.8255250097931995
-0.49298094946875004	0.825553792541059
-0.49291991431250004	0.8255686208616896
-0.49285887915625004	0.8255694915389314
-0.49279784400000004	0.8255564104219573
-0.49273680884375004	0.8255293917749255
-0.49267577368750004	0.8254884570077489
-0.49261473853125004	0.8254336329941807
-0.49255370337500004	0.8253649501474426
-0.49249266821875004	0.8252824401873371
-0.49243163306250004	0.8251861338148051
-0.49237059790625004	0.825076058691651
-0.49230956275000004	0.8249522376509242
-0.49224852759375004	0.824814687023704
-0.49218749243750004	0.8246634153851838
-0.49212645728125004	0.8244984228758425
-0.49206542212500004	0.8243197011336182
-0.49200438696875004	0.8241272340103365
-0.49194335181250004	0.823920998867943
-0.49188231665625004	0.8237009681182819
-0.49182128150000004	0.8234671110515936
-0.49176024634375004	0.8232193959831574
-0.49169921118750004	0.822957792568565
-0.49163817603125004	0.8226822739919871
-0.49157714087500004	0.8223928187500693
-0.49151610571875004	0.822089412194258
-0.49145507056250004	0.8217720479232152
-0.49139403540625004	0.8214407285438834
-0.49133300025000004	0.8210954655149637
-0.49127196509375004	0.8207362783909962
-0.49121092993750004	0.8203631937679117
-0.49114989478125004	0.8199762439047511
-0.49108885962500004	0.8195754648842418
-0.49102782446875004	0.8191608942846186
-0.49096678931250004	0.8187325686950786
-0.49090575415625004	0.8182905214870472
-0.49084471900000004	0.8178347807946962
-0.49078368384375004	0.8173653676997699
-0.49072264868750004	0.8168822950421832
-0.49066161353125004	0.8163855669662954
-0.49060057837500004	0.8158751788397692
-0.49053954321875004	0.815351117497603
-0.49047850806250004	0.8148133621959154
-0.49041747290625004	0.8142618863180523
-0.49035643775000004	0.8136966594457395
-0.49029540259375004	0.8131176496040864
-0.49023436743750004	0.8125248257371902
-0.49017333228125004	0.8119181602612077
-0.49011229712500004	0.8112976312690603
-0.49005126196875004	0.8106632242668299
-0.48999022681250004	0.8100149336593844
-0.48992919165625004	0.8093527638708492
-0.48986815650000004	0.8086767297136559
-0.48980712134375004	0.8079868559833631
-0.48974608618750004	0.8072831764841509
-0.48968505103125004	0.8065657324886157
-0.48962401587500004	0.80583457076166
-0.48956298071875004	0.8050897413539143
-0.48950194556250004	0.804331295030712
-0.48944091040625004	0.8035592805305047
-0.48937987525000004	0.8027737422194707
-0.48931884009375004	0.801974717987026
-0.48925780493750004	0.8011622371921813
-0.48919676978125004	0.8003363192798184
-0.48913573462500004	0.7994969734028247
-0.48907469946875004	0.7986441987078651
-0.48901366431250004	0.7977779849951325
-0.48895262915625004	0.796898313865048
-0.48889159400000004	0.7960051604505723
-0.48883055884375004	0.7950984956054089
-0.48876952368750004	0.794178288449394
-0.48870848853125004	0.7932445090509933
-0.48864745337500004	0.7922971310878751
-0.48858641821875004	0.7913361342973733
-0.48852538306250004	0.7903615063167074
-0.48846434790625004	0.7893732439957076
-0.48840331275000004	0.7883713543647637
-0.48834227759375004	0.7873558550462205
-0.48828124243750004	0.7863267740608362
-0.48822020728125004	0.7852841489628203
-0.48815917212500004	0.7842280251802224
-0.48809813696875004	0.783158453928165
-0.48803710181250004	0.7820754900506022
-0.48797606665625004	0.7809791896563935
-0.48791503150000004	0.779869607579785
-0.48785399634375004	0.778746794942231
-0.48779296118750004	0.7776107968436136
-0.48773192603125004	0.7764616504409194
-0.48767089087500004	0.7752993838986448
-0.48760985571875004	0.7741240159247847
-0.48754882056250004	0.7729355554776379
-0.48748778540625004	0.7717340019523938
-0.48742675025000004	0.7705193463063168
-0.48736571509375004	0.7692915732863577
-0.48730467993750004	0.7680506639681779
-0.48724364478125004	0.7667965978014079
-0.48718260962500004	0.765529354798226
-0.48712157446875004	0.7642489181501895
-0.48706053931250004	0.7629552765342179
-0.48699950415625004	0.7616484259747593
-0.48693846900000004	0.7603283714273938
-0.48687743384375004	0.7589951277872151
-0.48681639868750004	0.7576487201390439
-0.48675536353125004	0.7562891834074441
-0.48669432837500004	0.7549165614599375
-0.48663329321875004	0.7535309055286867
-0.48657225806250004	0.7521322719485081
-0.48651122290625004	0.7507207195256211
-0.48645018775000004	0.7492963069060886
-0.48638915259375004	0.7478590902417903
-0.48632811743750004	0.7464091213347585
-0.48626708228125004	0.7449464459899243
-0.48620604712500004	0.7434711022515598
-0.48614501196875004	0.7419831189388638
-0.48608397681250004	0.7404825150482539
-0.48602294165625004	0.7389692999946679
-0.48596190650000004	0.7374434747439206
-0.48590087134375004	0.7359050335568771
-0.48583983618750004	0.7343539655199264
-0.48577880103125004	0.7327902562106059
-0.48571776587500004	0.7312138902410211
-0.48565673071875004	0.7296248540643544
-0.48559569556250004	0.7280231383559564
-0.48553466040625004	0.7264087401868589
-0.48547362525000004	0.7247816650826867
-0.48541259009375004	0.7231419284976085
-0.48535155493750004	0.7214895562846182
-0.48529051978125004	0.7198245842623274
-0.48522948462500004	0.7181470573951568
-0.48516844946875004	0.7164570288794817
-0.48510741431250004	0.7147545587876962
-0.48504637915625004	0.7130397119065015
-0.48498534400000004	0.7113125551548334
-0.48492430884375004	0.7095731552625482
-0.48486327368750004	0.7078215766894003
-0.48480223853125004	0.7060578792738663
-0.48474120337500004	0.7042821158766424
-0.48468016821875004	0.702494330698945
-0.48461913306250004	0.7006945581932704
-0.48455809790625004	0.6988828224729242
-0.48449706275000004	0.6970591375251292
-0.48443602759375004	0.6952235082208231
-0.48437499243750004	0.6933759317792656
-0.48431395728125004	0.6915163994375987
-0.48425292212500004	0.6896448984933189
-0.48419188696875004	0.6877614148833274
-0.48413085181250004	0.6858659357872654
-0.48406981665625004	0.6839584518267274
-0.48400878150000004	0.6820389593291124
-0.48394774634375004	0.6801074627293553
-0.48388671118750004	0.6781639761976879
-0.48382567603125004	0.6762085242061421
-0.48376464087500004	0.6742411416789394
-0.48370360571875004	0.6722618739693387
-0.48364257056250004	0.6702707762701067
-0.48358153540625004	0.6682679121933491
-0.48352050025000004	0.6662533517462058
-0.48345946509375004	0.6642271689471748
-0.48339842993750004	0.6621894391190003
-0.48333739478125004	0.6601402362805717
-0.48327635962500004	0.6580796309120325
-0.48321532446875004	0.6560076876898374
-0.48315428931250004	0.6539244631081363
-0.48309325415625004	0.6518300035703464
-0.48303221900000004	0.6497243446120305
-0.48297118384375004	0.6476075111205538
-0.48291014868750004	0.6454795177682194
-0.48284911353125004	0.6433403696299278
-0.48278807837500004	0.6411900635719746
-0.48272704321875004	0.6390285905236246
-0.48266600806250004	0.6368559381381207
-0.48260497290625004	0.6346720932845483
-0.48254393775000004	0.6324770444998968
-0.48248290259375004	0.630270784730256
-0.48242186743750004	0.6280533139893543
-0.48236083228125004	0.6258246415716635
-0.48229979712500004	0.6235847876996756
-0.48223876196875004	0.6213337842723189
-0.48217772681250004	0.6190716748991698
-0.48211669165625004	0.6167985146772673
-0.48205565650000004	0.6145143692358299
-0.48199462134375004	0.6122193126917733
-0.48193358618750004	0.6099134253744014
-0.48187255103125004	0.6075967917837714
-0.48181151587500004	0.6052694981474744
-0.48175048071875004	0.6029316293283231
-0.48168944556250004	0.6005832656402609
-0.48162841040625004	0.59822448001649
-0.48156737525000004	0.5958553354855668
-0.48150634009375004	0.5934758832731274
-0.48144530493750004	0.5910861618994542
-0.48138426978125004	0.5886861966380549
-0.48132323462500004	0.5862759994823563
-0.48126219946875004	0.5838555707558036
-0.48120116431250004	0.5814249018632788
-0.48114012915625004	0.5789839779151896
-0.48107909400000004	0.576532780470805
-0.48101805884375004	0.574071291138201
-0.48095702368750004	0.5715994954569534
-0.48089598853125004	0.5691173861209984
-0.48083495337500004	0.5666249656559792
-0.48077391821875004	0.5641222487951946
-0.48071288306250004	0.5616092643190054
-0.48065184790625004	0.5590860560392483
-0.48059081275000004	0.5565526824942577
-0.48052977759375004	0.5540092157206017
-0.48046874243750004	0.5514557399526986
-0.48040770728125004	0.5488923496459829
-0.48034667212500004	0.5463191460646011
-0.48028563696875004	0.5437362333093511
-0.48022460181250004	0.5411437147052143
-0.48016356665625004	0.5385416892123449
-0.48010253150000004	0.5359302474913809
-0.48004149634375004	0.5333094685212986
-0.47998046118750004	0.5306794173847811
-0.47991942603125004	0.5280401436932538
-0.47985839087500004	0.5253916807407683
-0.47979735571875004	0.5227340458257442
-0.47973632056250004	0.5200672415617071
-0.47967528540625004	0.5173912580761814
-0.47961425025000004	0.5147060761336805
-0.47955321509375004	0.512011670677953
-0.47949217993750004	0.5093080146933732
-0.47943114478125004	0.5065950839082994
-0.47937010962500004	0.5038728614662643
-0.47930907446875004	0.5011413414575472
-0.47924803931250004	0.4984005318369578
-0.47918700415625004	0.49565045706058897
-0.47912596900000004	0.4928911596961774
-0.47906493384375004	0.4901227004522186
-0.47900389868750004	0.48734515711250403
-0.47894286353125004	0.4845586230149448
-0.47888182837500004	0.4817632046346919
-0.47882079321875004	0.47895901774339283
-0.47875975806250004	0.47614618277467013
-0.47869872290625004	0.47332482034726614
-0.47863768775000004	0.4704950468056803
-0.47857665259375004	0.46765696926193745
-0.47851561743750004	0.4648106811148572
-0.47845458228125004	0.46195625925403283
-0.47839354712500004	0.45909376210315767
-0.47833251196875004	0.4562232279901486
-0.47827147681250004	0.4533446753573552
-0.47821044165625004	0.45045810486087934
-0.47814940650000004	0.447563501895042
-0.47808837134375004	0.4446608397394229
-0.47802733618750004	0.44175008407227195
-0.47796630103125004	0.43883119832048306
-0.47790526587500004	0.43590414903025526
-0.47784423071875004	0.4329689109904013
-0.47778319556250004	0.43002547194094237
-0.47772216040625004	0.42707383678697514
-0.47766112525000004	0.42411403117028024
-0.47760009009375004	0.4211461035732636
-0.47753905493750004	0.41817012545558113
-0.47747801978125004	0.41518619007878055
-0.47741698462500004	0.41219441049585587
-0.47735594946875004	0.40919491616807135
-0.47729491431250004	0.406187848051465
-0.47723387915625004	0.4031733528194843
-0.47717284400000004	0.4001515765053131
-0.47711180884375004	0.3971226581004198
-0.47705077368750004	0.3940867241524191
-0.47698973853125004	0.3910438843342093
-0.47692870337500004	0.3879942273969838
-0.47686766821875004	0.3849378177437484
-0.47680663306250004	0.3818746935220539
-0.47674559790625004	0.3788048669958277
-0.47668456275000004	0.3757283269493702
-0.47662352759375004	0.3726450423547553
-0.47656249243750004	0.36955496688583955
-0.47650145728125004	0.36645804437125756
-0.47644042212500004	0.36335421562092457
-0.47637938696875004	0.3602434261117808
-0.47631835181250004	0.357125633017438
-0.47625731665625004	0.3540008108646786
-0.47619628150000004	0.350868956404629
-0.47613524634375004	0.34773009297921836
-0.47607421118750004	0.34458427319915613
-0.47601317603125004	0.34143157905785143
-0.47595214087500004	0.3382721203104648
-0.47589110571875004	0.33510603184592075
-0.47583007056250004	0.33193346944358315
-0.47576903540625004	0.32875460347721985
-0.47570800025000004	0.32556961141561014
-0.47564696509375004	0.3223786701253585
-0.47558592993750004	0.31918194826775514
-0.47552489478125004	0.31597959906001705
-0.47546385962500004	0.31277175386862927
-0.47540282446875004	0.3095585167565158
-0.47534178931250004	0.3063399603859478
-0.47528075415625004	0.30311612414148725
-0.47521971900000004	0.2998870143527086
-0.47515868384375004	0.29665260643327024
-0.47509764868750004	0.29341284945842155
-0.47503661353125004	0.29016767268697147
-0.47497557837500004	0.2869169932466971
-0.47491454321875004	0.28366072453885355
-0.47485350806250004	0.2803987847618069
-0.47479247290625004	0.27713110561868987
-0.47473143775000004	0.27385764094722564
-0.47467040259375004	0.2705783738145814
-0.47460936743750004	0.2672933212634085
-0.47454833228125004	0.2640025371764151
-0.47448729712500004	0.2607061133295407
-0.47442626196875004	0.25740417809550065
-0.47436522681250004	0.2540968928469007
-0.47430419165625004	0.25078444636630554
-0.47424315650000004	0.2474670471694826
-0.47418212134375004	0.24414491398762714
-0.47412108618750004	0.24081826551716629
-0.47406005103125004	0.23748731033763718
-0.47399901587500004	0.23415223734729745
-0.47393798071875004	0.23081320750964157
-0.47387694556250004	0.22747034739603728
-0.47381591040625004	0.2241237443060825
-0.47375487525000004	0.2207734436037799
-0.47369384009375004	0.21741944879067981
-0.47363280493750004	0.21406172375674448
-0.47357176978125004	0.2107001974219494
-0.47351073462500004	0.20733477123546037
-0.47344969946875004	0.20396532878438745
-0.47338866431250004	0.20059174637063695
-0.47332762915625004	0.19721390346750886
-0.47326659400000004	0.19383169278458026
-0.47320555884375004	0.19044503030956536
-0.47314452368750004	0.1870538641091827
-0.47308348853125004	0.18365818051211003
-0.47302245337500004	0.18025800796516842
-0.47296141821875004	0.1768534184484487
-0.47290038306250004	0.1734445258676454
-0.47283934790625004	0.17003148165900622
-0.47277831275000004	0.1666144679129688
-0.47271727759375004	0.16319368845397694
-0.47265624243750004	0.15976935865120628
-0.47259520728125004	0.15634169426797606
-0.47253417212500004	0.15291090008086755
-0.47247313696875004	0.14947715976490325
-0.47241210181250004	0.14604062785716304
-0.47235106665625004	0.14260142472993795
-0.47229003150000004	0.1391596373868196
-0.47222899634375004	0.13571532882880905
-0.47216796118750004	0.13226855341915222
-0.47210692603125004	0.12881936960330184
-0.47204589087500004	0.12536784368239925
-0.47198485571875004	0.12191404682090698
-0.47192382056250004	0.11845805009562373
-0.47186278540625004	0.11499991884597681
-0.47180175025000004	0.11153970666292429
-0.47174071509375004	0.10807745070632102
-0.47167967993750004	0.104613169127145
-0.47161864478125004	0.10114685996283342
-0.47155760962500004	0.09767850162606723
-0.47149657446875004	0.09420805583771065
-0.47143553931250004	0.09073547258958625
-0.47137450415625004	0.08726069587329251
-0.47131346900000004	0.08378366985870456
-0.47125243384375004	0.08030434562902225
-0.47119139868750004	0.07682268779149445
-0.47113036353125004	0.07333868021616215
-0.47106932837500004	0.06985233066823845
-0.47100829321875004	0.06636367419131368
-0.47094725806250004	0.06287277502955643
-0.47088622290625004	0.05937972641519262
-0.47082518775000004	0.055884647915084004
-0.47076415259375004	0.05238768138213223
-0.47070311743750004	0.04888898613573504
-0.47064208228125004	0.045388732720474
-0.47058104712500004	0.04188709522988183
-0.47052001196875004	0.03838424351700088
-0.47045897681250004	0.0348803363700403
-0.47039794165625004	0.03137551564907973
-0.47033690650000004	0.027869901241285005
-0.47027587134375004	0.024363587457410355
-0.47021483618750004	0.02085664160504447
-0.47015380103125004	0.01734910433637095
-0.47009276587500004	0.013840991239167414
-0.47003173071875004	0.010332296148915237
-0.46997069556250004	0.0068229961950050984
-0.46990966040625004	0.0033130577792283714
-0.46984862525000004	-0.00019755686334634606
-0.46978759009375004	-0.003708882531582746
