Time	Frequency
-0.5000307484687498	-2.1024312910370822e-21
-0.49996971331249984	-2.100039696516033e-21
-0.49990867815624984	-2.0976230399769228e-21
-0.49984764299999984	-2.0951813991361293e-21
-0.49978660784374984	-2.0927148171037102e-21
-0.49972557268749984	-2.0902233015783267e-21
-0.49966453753124984	-2.087706825130835e-21
-0.49960350237499984	-2.0851653266640048e-21
-0.49954246721874984	-2.0825987141868117e-21
-0.49948143206249984	-2.080006868747234e-21
-0.49942039690624984	-2.077389649218409e-21
-0.49935936174999984	-2.074746897903828e-21
-0.49929832659374984	-2.0720784468166838e-21
-0.49923729143749984	-2.0693841242536944e-21
-0.49917625628124984	-2.0666637614072906e-21
-0.49911522112499984	-2.0639171987118257e-21
-0.49905418596874984	-2.061144291760246e-21
-0.49899315081249984	-2.058344917050946e-21
-0.49893211565624984	-2.055518977285774e-21
-0.49887108049999984	-2.0526664056425734e-21
-0.49881004534374984	-2.0497871690759782e-21
-0.49874901018749984	-2.0468812704065365e-21
-0.49868797503124984	-2.0439487486465993e-21
-0.49862693987499984	-2.040989677968322e-21
-0.49856590471874984	-2.038004166096271e-21
-0.49850486956249984	-2.0349923520684017e-21
-0.49844383440624984	-2.031954402909766e-21
-0.49838279924999984	-2.0288905090444812e-21
-0.49832176409374984	-2.0258008785364604e-21
-0.49826072893749984	-2.022685730730309e-21
-0.49819969378124984	-2.019545290190474e-21
-0.49813865862499984	-2.0163797808613965e-21
-0.49807762346874984	-2.01318941937453e-21
-0.49801658831249984	-2.0099744079425322e-21
-0.49795555315624984	-2.0067349289195725e-21
-0.49789451799999984	-2.0034711409867073e-21
-0.49783348284374984	-2.0001831752339026e-21
-0.49777244768749984	-1.9968711316691684e-21
-0.49771141253124984	-1.993535077390946e-21
-0.49765037737499984	-1.990175046094697e-21
-0.49758934221874984	-1.986791038660405e-21
-0.49752830706249984	-1.9833830249148877e-21
-0.49746727190624984	-1.9799509462601697e-21
-0.49740623674999984	-1.976494718821399e-21
-0.49734520159374984	-1.973014237493787e-21
-0.49728416643749984	-1.969509381236259e-21
-0.49722313128124984	-1.9659800185924418e-21
-0.49716209612499984	-1.9624260129535356e-21
-0.49710106096874984	-1.958847228377388e-21
-0.49704002581249984	-1.9552435354744077e-21
-0.49697899065624984	-1.9516148161171768e-21
-0.49691795549999984	-1.9479609673925334e-21
-0.49685692034374984	-1.944281905870123e-21
-0.49679588518749984	-1.9405775718619275e-21
-0.49673485003124984	-1.9368479325812528e-21
-0.49667381487499984	-1.9330929841288143e-21
-0.49661277971874984	-1.929312752679606e-21
-0.49655174456249984	-1.925507294504735e-21
-0.49649070940624984	-1.9216766947011724e-21
-0.49642967424999984	-1.9178210651110503e-21
-0.49636863909374984	-1.9139405418388714e-21
-0.49630760393749984	-1.910035282494156e-21
-0.49624656878124984	-1.906105462527684e-21
-0.49618553362499984	-1.9021512702818088e-21
-0.49612449846874984	-1.8981729017766527e-21
-0.49606346331249984	-1.8941705559960795e-21
-0.49600242815624984	-1.89014443025423e-21
-0.49594139299999984	-1.886094715337798e-21
-0.49588035784374984	-1.8820215909942465e-21
-0.49581932268749984	-1.8779252222159613e-21
-0.49575828753124984	-1.873805755884012e-21
-0.49569725237499984	-1.8696633177067224e-21
-0.49563621721874984	-1.8654980098667012e-21
-0.49557518206249984	-1.8613099093425743e-21
-0.49551414690624984	-1.857099066964361e-21
-0.49545311174999984	-1.852865507251938e-21
-0.49539207659374984	-1.848609228864901e-21
-0.49533104143749984	-1.8443302059276373e-21
-0.49527000628124984	-1.8400283905438096e-21
-0.49520897112499984	-1.83570371578813e-21
-0.49514793596874984	-1.8313560982495772e-21
-0.49508690081249984	-1.8269854409692204e-21
-0.49502586565624984	-1.8225916378779676e-21
-0.49496483049999984	-1.818174578953677e-21
-0.49490379534374984	-1.8137341550220437e-21
-0.49484276018749984	-1.8092702619523256e-21
-0.49478172503124984	-1.8047828043917927e-21
-0.49472068987499984	-1.8002716993373196e-21
-0.49465965471874984	-1.7957368796129603e-21
-0.49459861956249984	-1.791178297021874e-21
-0.49453758440624984	-1.786595924931887e-21
-0.49447654924999984	-1.7819897603208255e-21
-0.49441551409374984	-1.77735982550691e-21
-0.49435447893749984	-1.7727061696109013e-21
-0.49429344378124984	-1.7680288693808575e-21
-0.49423240862499984	-1.7633280290822932e-21
-0.49417137346874984	-1.758603779481971e-21
-0.49411033831249984	-1.753856275742241e-21
-0.49404930315624984	-1.7490856943432397e-21
-0.49398826799999984	-1.7442922297199773e-21
-0.49392723284374984	-1.7394760907196576e-21
-0.49386619768749984	-1.734637496463709e-21
-0.49380516253124984	-1.729776671514144e-21
-0.49374412737499984	-1.7248938407390983e-21
-0.49368309221874984	-1.7199892243346576e-21
-0.49362205706249984	-1.7150630329192982e-21
-0.49356102190624984	-1.7101154628137675e-21
-0.49349998674999984	-1.70514669186385e-21
-0.49343895159374984	-1.7001568755793763e-21
-0.49337791643749984	-1.69514614336717e-21
-0.49331688128124984	-1.6901145952362495e-21
-0.49325584612499984	-1.685062299895169e-21
-0.49319481096874984	-1.6799892945126806e-21
-0.49313377581249984	-1.674895585005396e-21
-0.49307274065624984	-1.6697811462771737e-21
-0.49301170549999984	-1.6646459234359644e-21
-0.49295067034374984	-1.6594898344249583e-21
-0.49288963518749984	-1.6543127733642464e-21
-0.49282860003124984	-1.6491146149151087e-21
-0.49276756487499984	-1.6438952201407835e-21
-0.49270652971874984	-1.6386544426207527e-21
-0.49264549456249984	-1.6333921338768396e-21
-0.49258445940624984	-1.6281081488299878e-21
-0.49252342424999984	-1.622802352023687e-21
-0.49246238909374984	-1.6174746244343084e-21
-0.49240135393749984	-1.6121248696210558e-21
-0.49234031878124984	-1.6067530181097044e-21
-0.49227928362499984	-1.6013590306787961e-21
-0.49221824846874984	-1.5959429014312857e-21
-0.49215721331249984	-1.5905046603019741e-21
-0.49209617815624984	-1.5850443742696954e-21
-0.49203514299999984	-1.5795621471860866e-21
-0.49197410784374984	-1.57405811885402e-21
-0.49191307268749984	-1.568532463338461e-21
-0.49185203753124984	-1.562985385665172e-21
-0.49179100237499984	-1.557417117009006e-21
-0.49172996721874984	-1.5518279092026281e-21
-0.49166893206249984	-1.5462180285402247e-21
-0.49160789690624984	-1.5405877489195059e-21
-0.49154686174999984	-1.5349373451540276e-21
-0.49148582659374984	-1.5292670868795483e-21
-0.49142479143749984	-1.523577232588998e-21
-0.49136375628124984	-1.5178680232997803e-21
-0.49130272112499984	-1.5121396765451237e-21
-0.49124168596874984	-1.5063923816487423e-21
-0.49118065081249984	-1.5006262964003926e-21
-0.49111961565624984	-1.494841545026971e-21
-0.49105858049999984	-1.4890382168313785e-21
-0.49099754534374984	-1.483216365002103e-21
-0.49093651018749984	-1.477376006701052e-21
-0.49087547503124984	-1.4715171252559017e-21
-0.49081443987499984	-1.465639673399654e-21
-0.49075340471874984	-1.4597435766535028e-21
-0.49069236956249984	-1.4538287373717012e-21
-0.49063133440624984	-1.4478950399327118e-21
-0.49057029924999984	-1.4419423569033788e-21
-0.49050926409374984	-1.4359705560768654e-21
-0.49044822893749984	-1.4299795072952394e-21
-0.49038719378124984	-1.423969088180812e-21
-0.49032615862499984	-1.417939189834203e-21
-0.49026512346874984	-1.411889722353067e-21
-0.49020408831249984	-1.4058206193834925e-21
-0.49014305315624984	-1.399731842099396e-21
-0.49008201799999984	-1.3936233824146176e-21
-0.49002098284374984	-1.3874952655620454e-21
-0.48995994768749984	-1.3813475517426024e-21
-0.48989891253124984	-1.3751803357248736e-21
-0.48983787737499984	-1.3689937453847252e-21
-0.48977684221874984	-1.3627879401989851e-21
-0.48971580706249984	-1.356563109021221e-21
-0.48965477190624984	-1.3503194669207306e-21
-0.48959373674999984	-1.3440572510323745e-21
-0.48953270159374984	-1.3377767155688544e-21
-0.48947166643749984	-1.3314781266283373e-21
-0.48941063128124984	-1.325161756471246e-21
-0.48934959612499984	-1.3188278772613152e-21
-0.48928856096874984	-1.312476755109686e-21
-0.48922752581249984	-1.3061086442959079e-21
-0.48916649065624984	-1.2997237817726275e-21
-0.48910545549999984	-1.29332238254867e-21
-0.48904442034374984	-1.286904635272253e-21
-0.48898338518749984	-1.2804706977361536e-21
-0.48892235003124984	-1.274020693783918e-21
-0.48886131487499984	-1.2675547119612198e-21
-0.48880027971874984	-1.2610728046810716e-21
-0.48873924456249984	-1.2545749879260015e-21
-0.48867820940624984	-1.2480612427354793e-21
-0.48861717424999984	-1.2415315185438452e-21
-0.48855613909374984	-1.2349857366634912e-21
-0.48849510393749984	-1.2284237936311757e-21
-0.48843406878124984	-1.221845565873053e-21
-0.48837303362499984	-1.215250915736354e-21
-0.48831199846874984	-1.2086396981825146e-21
-0.48825096331249984	-1.2020117673929241e-21
-0.48818992815624984	-1.1953669829172478e-21
-0.48812889299999984	-1.1887052163790476e-21
-0.48806785784374984	-1.182026358897826e-21
-0.48800682268749984	-1.1753303279516129e-21
-0.48794578753124984	-1.1686170728987806e-21
-0.48788475237499984	-1.1618865793328847e-21
-0.48782371721874984	-1.1551388722834813e-21
-0.48776268206249984	-1.1483740183056357e-21
-0.48770164690624984	-1.141592127660731e-21
-0.48764061174999984	-1.1347933560082681e-21
-0.48757957659374984	-1.127977903527771e-21
-0.48751854143749984	-1.1211460123917285e-21
-0.48745750628124984	-1.114297963713411e-21
-0.48739647112499984	-1.1074340723534635e-21
-0.48733543596874984	-1.100554679191871e-21
-0.48727440081249984	-1.0936601428269063e-21
-0.48721336565624984	-1.0867508318465229e-21
-0.48715233049999984	-1.0798271171440217e-21
-0.48709129534374984	-1.0728893634315077e-21
-0.48703026018749984	-1.065937919831012e-21
-0.48696922503124984	-1.0589731102672423e-21
-0.48690818987499984	-1.0519952244895134e-21
-0.48684715471874984	-1.0450045101508388e-21
-0.48678611956249984	-1.0380011662979052e-21
-0.48672508440624984	-1.0309853387938167e-21
-0.48666404924999984	-1.0239571178824334e-21
-0.48660301409374984	-1.0169165372212726e-21
-0.48654197893749984	-1.009863573775559e-21
-0.48648094378124984	-1.0027981493098944e-21
-0.48641990862499984	-9.957201344430503e-22
-0.48635887346874984	-9.886293553313889e-22
-0.48629783831249984	-9.815256020495109e-22
-0.48623680315624984	-9.744086373227534e-22
-0.48617576799999984	-9.672782056680417e-22
-0.48611473284374984	-9.601340433537055e-22
-0.48605369768749984	-9.529758889444247e-22
-0.48599266253124984	-9.458034949180653e-22
-0.48593162737499984	-9.386166396515753e-22
-0.48587059221874984	-9.314151376647745e-22
-0.48580955706249984	-9.241988484306804e-22
-0.48574852190624984	-9.169676854807418e-22
-0.48568748674999984	-9.097216245040376e-22
-0.48562645159374984	-9.024607083536997e-22
-0.48556541643749984	-8.95185050200364e-22
-0.48550438128124984	-8.87894835216423e-22
-0.48544334612499984	-8.805903188136114e-22
-0.48538231096874984	-8.732718221263714e-22
-0.48532127581249984	-8.659397261771307e-22
-0.48526024065624984	-8.585944636888293e-22
-0.48519920549999984	-8.512365080486707e-22
-0.48513817034374984	-8.438663601514916e-22
-0.48507713518749984	-8.364845340620251e-22
-0.48501610003124984	-8.290915425989434e-22
-0.48495506487499984	-8.216878829397543e-22
-0.48489402971874984	-8.142740223817225e-22
-0.48483299456249984	-8.068503851042955e-22
-0.48477195940624984	-7.9941734022911e-22
-0.48471092424999984	-7.919751915009959e-22
-0.48464988909374984	-7.845241687939167e-22
-0.48458885393749984	-7.770644216327742e-22
-0.48452781878124984	-7.695960158574833e-22
-0.48446678362499984	-7.621189334766779e-22
-0.48440574846874984	-7.546330744580005e-22
-0.48434471331249984	-7.471382608145593e-22
-0.48428367815624984	-7.396342438202852e-22
-0.48422264299999984	-7.321207136916411e-22
-0.48416160784374984	-7.245973114077418e-22
-0.48410057268749984	-7.170636423985718e-22
-0.48403953753124984	-7.095192913919026e-22
-0.48397850237499984	-7.019638392081144e-22
-0.48391746721874984	-6.9439688163661945e-22
-0.48385643206249984	-6.86818048260975e-22
-0.48379539690624984	-6.792270198464963e-22
-0.48373436174999984	-6.716235440160745e-22
-0.48367332659374984	-6.640074486626424e-22
-0.48361229143749984	-6.56378652209395e-22
-0.48355125628124984	-6.487371703077031e-22
-0.48349022112499984	-6.410831198871949e-22
-0.48342918596874984	-6.334167207422982e-22
-0.48336815081249984	-6.257382932105762e-22
-0.48330711565624984	-6.1804825133026595e-22
-0.48324608049999984	-6.103470928493074e-22
-0.48318504534374984	-6.026353879753389e-22
-0.48312401018749984	-5.949137664452696e-22
-0.48306297503124984	-5.871829011131545e-22
-0.48300193987499984	-5.794434886711509e-22
-0.48294090471874984	-5.716962297330755e-22
-0.48287986956249984	-5.639418090502327e-22
-0.48281883440624984	-5.561808750678454e-22
-0.48275779924999984	-5.484140186044386e-22
-0.48269676409374984	-5.406417523608405e-22
-0.48263572893749984	-5.32864493976469e-22
-0.48257469378124984	-5.250825536683494e-22
-0.48251365862499984	-5.172961250499714e-22
-0.48245262346874984	-5.095052790021221e-22
-0.48239158831249984	-5.017099626784483e-22
-0.48233055315624984	-4.939100038431783e-22
-0.48226951799999984	-4.861051184301382e-22
-0.48220848284374984	-4.782949208449269e-22
-0.48214744768749984	-4.704789381966676e-22
-0.48208641253124984	-4.626566281736877e-22
-0.48202537737499984	-4.548273990398027e-22
-0.48196434221874984	-4.469906308775283e-22
-0.48190330706249984	-4.391456984125151e-22
-0.48184227190624984	-4.312919955257571e-22
-0.48178123674999984	-4.234289603717268e-22
-0.48172020159374984	-4.1555609993462162e-22
-0.48165916643749984	-4.076730125139912e-22
-0.48159813128124984	-3.9977940658049853e-22
-0.48153709612499984	-3.9187511552707386e-22
-0.48147606096874984	-3.8396010778175487e-22
-0.48141502581249984	-3.7603449184984458e-22
-0.48135399065624984	-3.6809851701071503e-22
-0.48129295549999984	-3.6015256971194314e-22
-0.48123192034374984	-3.521971653260274e-22
-0.48117088518749984	-3.4423293670484873e-22
-0.48110985003124984	-3.3626061996607744e-22
-0.48104881487499984	-3.282810358073807e-22
-0.48098777971874984	-3.2029506668172195e-22
-0.48092674456249984	-3.12303631878199e-22
-0.48086570940624984	-3.043076612994149e-22
-0.48080467424999984	-2.9630806820793884e-22
-0.48074363909374984	-2.883057216356217e-22
-0.48068260393749984	-2.80301420184084e-22
-0.48062156878124984	-2.722958691373318e-22
-0.48056053362499984	-2.6428966103437867e-22
-0.48049949846874984	-2.562832592143011e-22
-0.48043846331249984	-2.482769849568618e-22
-0.48037742815624984	-2.4027100975031486e-22
-0.48031639299999984	-2.322653532780048e-22
-0.48025535784374984	-2.242598857399066e-22
-0.48019432268749984	-2.1625433392136955e-22
-0.48013328753124984	-2.0824829206284233e-22
-0.48007225237499984	-2.0024123776431454e-22
-0.48001121721874984	-1.9223255297950775e-22
-0.47995018206249984	-1.842215493899727e-22
-0.47988914690624984	-1.7620749529334013e-22
-0.47982811174999984	-1.6818964266374575e-22
-0.47976707659374984	-1.6016725493028894e-22
-0.47970604143749984	-1.521396344430172e-22
-0.47964500628124984	-1.4410614799437874e-22
-0.47958397112499984	-1.3606624925658e-22
-0.47952293596874984	-1.2801949699724608e-22
-0.47946190081249984	-1.1996556939902706e-22
-0.47940086565624984	-1.1190427536194761e-22
-0.47933983049999984	-1.0383556154065081e-22
-0.47927879534374984	-9.57595129819737e-23
-0.47921776018749984	-8.767634707312515e-23
-0.47915672503124984	-7.95864021837436e-23
-0.47909568987499984	-7.149012196606542e-23
-0.47903465471874984	-6.338803539719498e-23
-0.47897361956249984	-5.52807329189347e-23
-0.47891258440624984	-4.716883992494718e-23
-0.47885154924999984	-3.905298898491341e-23
-0.47879051409374984	-3.093379130286757e-23
-0.47872947893749984	-2.28118085010563e-23
-0.47866844378124984	-1.468752743039526e-23
-0.47860740862499984	-6.5613397614749704e-24
-0.47854637346874984	1.5664740119639171e-24
-0.47848533831249984	9.695751273388317e-24
-0.47842430315624984	1.7826426517465005e-23
-0.47836326799999984	2.5958472473302896e-23
-0.47830223284374984	3.409182775376145e-23
-0.47824119768749984	4.222634630596043e-23
-0.47818016253124984	5.0361776497526425e-23
-0.47811912737499984	5.849775964666051e-23
-0.47805809221874984	6.663384070297386e-23
-0.47799705706249984	7.476948703503228e-23
-0.47793602190624984	8.290411231719166e-23
-0.47787498674999984	9.103710361617208e-23
-0.47781395159374984	9.916784927840151e-23
-0.47775291643749984	1.0729576641564492e-22
-0.47769188128124984	1.1542032810754176e-22
-0.47763084612499984	1.2354108860081525e-22
-0.47756981096874984	1.3165770453433696e-22
-0.47750877581249984	1.3976995150835599e-22
-0.47744774065624984	1.4787773511396705e-22
-0.47738670549999984	1.559810963854127e-22
-0.47732567034374984	1.6408021304529405e-22
-0.47726463518749984	1.721753965679936e-22
-0.47720360003124984	1.8026708304988315e-22
-0.47714256487499984	1.8835581790995823e-22
-0.47708152971874984	1.9644223752307213e-22
-0.47702049456249984	2.0452704874462822e-22
-0.47695945940624984	2.126110045239517e-22
-0.47689842424999984	2.2069487627871223e-22
-0.47683738909374984	2.2877942590655913e-22
-0.47677635393749984	2.3686537865250807e-22
-0.47671531878124984	2.449533973607873e-22
-0.47665428362499984	2.530440591007117e-22
-0.47659324846874984	2.6113783386559703e-22
-0.47653221331249984	2.6923506570443324e-22
-0.47647117815624984	2.7733595884693246e-22
-0.47641014299999984	2.8544056920992948e-22
-0.47634910784374984	2.935487997322141e-22
-0.47628807268749984	3.016604002941048e-22
-0.47622703753124984	3.0977497335813815e-22
-0.47616600237499984	3.178919846532728e-22
-0.47610496721874984	3.2601077784492026e-22
-0.47604393206249984	3.3413059305130586e-22
-0.47598289690624984	3.422505897834869e-22
-0.47592186174999984	3.50369872664051e-22
-0.47586082659374984	3.584875169207147e-22
-0.47579979143749984	3.666025940422221e-22
-0.47573875628124984	3.7471419899889555e-22
-0.47567772112499984	3.828214770788246e-22
-0.47561668596874984	3.909236477705053e-22
-0.47555565081249984	3.9902002550776553e-22
-0.47549461565624984	4.071100374702852e-22
-0.47543358049999984	4.1519323726333315e-22
-0.47537254534374984	4.232693136405329e-22
-0.47531151018749984	4.313380948612926e-22
-0.47525047503124984	4.393995488266494e-22
-0.47518943987499984	4.474537781486374e-22
-0.47512840471874984	4.555010102951425e-22
-0.47506736956249984	4.635415839956013e-22
-0.47500633440624984	4.715759325686717e-22
-0.47494529924999984	4.796045641688843e-22
-0.47488426409374984	4.876280393343945e-22
-0.47482322893749984	4.956469470312352e-22
-0.47476219378124984	5.03661880581106e-22
-0.47470115862499984	5.11673414265688e-22
-0.47464012346874984	5.196820808196132e-22
-0.47457908831249984	5.276883505689562e-22
-0.47451805315624984	5.356926135381684e-22
-0.47445701799999984	5.436951651653879e-22
-0.47439598284374984	5.5169619552975985e-22
-0.47433494768749984	5.596957818015203e-22
-0.47427391253124984	5.676938839571778e-22
-0.47421287737499984	5.756903445500692e-22
-0.47415184221874984	5.836848935926837e-22
-0.47409080706249984	5.916771583380387e-22
-0.47402977190624984	5.996666758289228e-22
-0.47396873674999984	6.076529071277757e-22
-0.47390770159374984	6.156352539295384e-22
-0.47384666643749984	6.236130770968678e-22
-0.47378563128124984	6.315857161428134e-22
-0.47372459612499984	6.395525093357969e-22
-0.47366356096874984	6.475128135947571e-22
-0.47360252581249984	6.554660228203116e-22
-0.47354149065624984	6.634115839696021e-22
-0.47348045549999984	6.713490107221874e-22
-0.47341942034374984	6.792778943654759e-22
-0.47335838518749984	6.871979120457858e-22
-0.47329735003124984	6.951088321950342e-22
-0.47323631487499984	7.030105159577087e-22
-0.47317527971874984	7.109029148234117e-22
-0.47311424456249984	7.187860655314759e-22
-0.47305320940624984	7.266600819369107e-22
-0.47299217424999984	7.3452514328882415e-22
-0.47293113909374984	7.4238147957877995e-22
-0.47287010393749984	7.502293555832471e-22
-0.47280906878124984	7.580690546322419e-22
-0.47274803362499984	7.659008616980358e-22
-0.47268699846874984	7.737250462284132e-22
-0.47262596331249984	7.815418462669687e-22
-0.47256492815624984	7.893514536314449e-22
-0.47250389299999984	7.971539996321036e-22
