Time	Frequency
-0.5000224041562502	0.7203645852901039
-0.4999613690000002	0.7220770905468521
-0.4999003338437502	0.7237776300939713
-0.4998392986875002	0.7254661632366102
-0.4997782635312502	0.7271426528099771
-0.4997172283750002	0.7288070653932479
-0.4996561932187502	0.7304593714122309
-0.4995951580625002	0.7320995450388111
-0.4995341229062502	0.7337275639070541
-0.4994730877500002	0.7353434087556183
-0.4994120525937502	0.7369470629879509
-0.4993510174375002	0.7385385121288616
-0.4992899822812502	0.7401177432038326
-0.4992289471250002	0.7416847440523756
-0.4991679119687502	0.7432395025648252
-0.4991068768125002	0.7447820059122938
-0.4990458416562502	0.7463122398696809
-0.4989848065000002	0.7478301882200517
-0.4989237713437502	0.7493358322612491
-0.4988627361875002	0.7508291504540329
-0.4988017010312502	0.7523101181564745
-0.4987406658750002	0.7537787074667033
-0.4986796307187502	0.7552348872196512
-0.4986185955625002	0.7566786231066298
-0.4985575604062502	0.7581098779328024
-0.4984965252500002	0.7595286120060438
-0.4984354900937502	0.760934783603099
-0.4983744549375002	0.7623283495347035
-0.4983134197812502	0.7637092658054809
-0.4982523846250002	0.7650774882812004
-0.4981913494687502	0.7664329733211657
-0.4981303143125002	0.7677756783912597
-0.4980692791562502	0.7691055626722146
-0.4980082440000002	0.7704225876235304
-0.4979472088437502	0.7717267174523084
-0.4978861736875002	0.7730179194794666
-0.4978251385312502	0.7742961643729883
-0.4977641033750002	0.7755614262285319
-0.4977030682187502	0.7768136825206492
-0.4976420330625002	0.7780529139354077
-0.4975809979062502	0.779279104084294
-0.4975199627500002	0.7804922391058945
-0.4974589275937502	0.781692307170251
-0.4973978924375002	0.7828792979061642
-0.4973368572812502	0.7840532017754407
-0.4972758221250002	0.7852140094139968
-0.4972147869687502	0.7863617109764492
-0.4971537518125002	0.7874962955221726
-0.4970927166562502	0.788617750439192
-0.4970316815000002	0.7897260609309841
-0.4969706463437502	0.7908212096349748
-0.4969096111875002	0.7919031763859076
-0.4968485760312502	0.7929719380980523
-0.4967875408750002	0.7940274687807201
-0.4967265057187502	0.7950697397058026
-0.4966654705625002	0.7960987197007388
-0.4966044354062502	0.7971143755401784
-0.4965434002500002	0.7981166724385574
-0.4964823650937502	0.7991055746415057
-0.4964213299375002	0.8000810460966837
-0.4963602947812502	0.8010430511677468
-0.4962992596250002	0.8019915553405471
-0.4962382244687502	0.8029265258933814
-0.4961771893125002	0.8038479325198774
-0.4961161541562502	0.8047557478716925
-0.4960551190000002	0.8056499479818017
-0.4959940838437502	0.8065305125455109
-0.4959330486875002	0.8073974250530614
-0.4958720135312502	0.808250672772123
-0.4958109783750002	0.8090902465771634
-0.4957499432187502	0.8099161406218413
-0.4956889080625002	0.8107283518583478
-0.4956278729062502	0.8115268794366388
-0.4955668377500002	0.8123117240255947
-0.4955058025937502	0.8130828870780067
-0.4954447674375002	0.8138403700491595
-0.4953837322812502	0.8145841735952105
-0.4953226971250002	0.8153142968214817
-0.4952616619687502	0.8160307366412378
-0.4952006268125002	0.8167334872437563
-0.4951395916562502	0.8174225396781883
-0.4950785565000002	0.8180978815775725
-0.4950175213437502	0.8187594970197595
-0.4949564861875002	0.8194073665450841
-0.4948954510312502	0.8200414673549911
-0.4948344158750002	0.8206617736473144
-0.4947733807187502	0.8212682570512376
-0.4947123455625002	0.8218608871974208
-0.4946513104062502	0.82243963242933
-0.4945902752500002	0.823004460599395
-0.4945292400937502	0.823555339896832
-0.4944682049375002	0.8240922396443925
-0.4944071697812502	0.8246151310270725
-0.4943461346250002	0.8251239877892094
-0.4942850994687502	0.8256187869062225
-0.4942240643125002	0.8260995091250963
-0.4941630291562502	0.8265661392797335
-0.4941019940000002	0.8270186664216446
-0.4940409588437502	0.8274570838344006
-0.4939799236875002	0.8278813889047494
-0.4939188885312502	0.8282915827972684
-0.4938578533750002	0.8286876699588196
-0.4937968182187502	0.8290696575015967
-0.4937357830625002	0.8294375544522575
-0.4936747479062502	0.8297913708619111
-0.4936137127500002	0.830131116844805
-0.4935526775937502	0.8304568016378959
-0.4934916424375002	0.8307684327505602
-0.4934306072812502	0.8310660152259202
-0.4933695721250002	0.8313495510012276
-0.4933085369687502	0.8316190383728302
-0.4932475018125002	0.8318744716055746
-0.4931864666562502	0.8321158407262477
-0.4931254315000002	0.8323431314922948
-0.4930643963437502	0.8325563255419676
-0.4930033611875002	0.8327554007762575
-0.4929423260312502	0.8329403319968343
-0.4928812908750002	0.8331110917713881
-0.4928202557187502	0.8332676513940713
-0.4927592205625002	0.8334099818531849
-0.4926981854062502	0.8335380548711266
-0.4926371502500002	0.8336518439874026
-0.4925761150937502	0.8337513255642225
-0.4925150799375002	0.8338364796857114
-0.4924540447812502	0.8339072909507265
-0.4923930096250002	0.8339637491101753
-0.4923319744687502	0.8340058494722445
-0.4922709393125002	0.8340335930200078
-0.4922099041562502	0.8340469862999441
-0.4921488690000002	0.8340460411816565
-0.4920878338437502	0.8340307743888877
-0.4920267986875002	0.8340012066834216
-0.4919657635312502	0.8339573618305974
-0.4919047283750002	0.8338992654814938
-0.4918436932187502	0.8338269439906424
-0.4917826580625002	0.8337404231869446
-0.4917216229062502	0.8336397271230647
-0.4916605877500002	0.8335248768755875
-0.4915995525937502	0.8333958894595356
-0.4915385174375002	0.8332527768965933
-0.4914774822812502	0.8330955455531803
-0.4914164471250002	0.8329241957847675
-0.4913554119687502	0.8327387217933874
-0.4912943768125002	0.832539111718682
-0.4912333416562502	0.8323253480945825
-0.4911723065000002	0.8320974086297355
-0.4911112713437502	0.8318552671121215
-0.4910502361875002	0.8315988944372662
-0.4909892010312502	0.8313282599105779
-0.4909281658750002	0.8310433327586151
-0.4908671307187502	0.830744083617572
-0.4908060955625002	0.8304304858958788
-0.4907450604062502	0.8301025170553351
-0.4906840252500002	0.8297601598540707
-0.4906229900937502	0.8294034034293443
-0.4905619549375002	0.8290322439976512
-0.4905009197812502	0.8286466851838049
-0.4904398846250002	0.8282467380719901
-0.4903788494687502	0.8278324209015053
-0.4903178143125002	0.8274037584656941
-0.4902567791562502	0.826960781361003
-0.4901957440000002	0.8265035250237907
-0.4901347088437502	0.8260320283975764
-0.4900736736875002	0.825546332273621
-0.4900126385312502	0.825046477607631
-0.4899516033750002	0.8245325038809943
-0.4898905682187502	0.8240044474642473
-0.4898295330625002	0.8234623402301035
-0.4897684979062502	0.8229062084023101
-0.4897074627500002	0.8223360715191744
-0.4896464275937502	0.8217519416734804
-0.4895853924375002	0.8211538230360087
-0.4895243572812502	0.8205417117146778
-0.4894633221250002	0.819915596162861
-0.4894022869687502	0.8192754580025077
-0.4893412518125002	0.8186212730304289
-0.4892802166562502	0.8179530125010784
-0.4892191815000002	0.8172706447059571
-0.4891581463437502	0.8165741366726426
-0.4890971111875002	0.8158634560126963
-0.4890360760312502	0.8151385728803492
-0.4889750408750002	0.814399461704497
-0.4889140057187502	0.8136461026346177
-0.4888529705625002	0.8128784829449665
-0.4887919354062502	0.8120965983496229
-0.4887309002500002	0.8113004539454718
-0.4886698650937502	0.8104900646610134
-0.4886088299375002	0.8096654552192576
-0.4885477947812502	0.8088266596226682
-0.4884867596250002	0.8079737202760295
-0.4884257244687502	0.8071066868689243
-0.4883646893125002	0.8062256148955471
-0.4883036541562502	0.8053305638279107
-0.4882426190000002	0.8044215952200006
-0.4881815838437502	0.8034987707149202
-0.4881205486875002	0.8025621499205612
-0.4880595135312502	0.8016117884912246
-0.4879984783750002	0.8006477364565986
-0.4879374432187502	0.7996700365510279
-0.4878764080625002	0.7986787227433433
-0.4878153729062502	0.7976738192840187
-0.4877543377500002	0.7966553402339378
-0.4876933025937502	0.7956232894345506
-0.4876322674375002	0.7945776608342734
-0.4875712322812502	0.793518439085424
-0.4875101971250002	0.7924456006391638
-0.4874491619687502	0.7913591153297842
-0.4873881268125002	0.7902589480880363
-0.4873270916562502	0.7891450608232489
-0.4872660565000002	0.7880174146185182
-0.4872050213437502	0.7868759719912092
-0.4871439861875002	0.7857206990208665
-0.4870829510312502	0.7845515672709692
-0.4870219158750002	0.7833685555054353
-0.4869608807187502	0.7821716512398433
-0.4868998455625002	0.7809608519515564
-0.4868388104062502	0.7797361658387685
-0.4867777752500002	0.7784976121164747
-0.4867167400937502	0.7772452209128559
-0.4866557049375002	0.7759790329265231
-0.4865946697812502	0.7746990986292842
-0.4865336346250002	0.7734054769535448
-0.4864725994687502	0.7720982337947242
-0.4864115643125002	0.7707774402032245
-0.4863505291562502	0.7694431702149899
-0.4862894940000002	0.7680954988069371
-0.4862284588437502	0.7667345000146243
-0.4861674236875002	0.7653602449229981
-0.4861063885312502	0.7639727997356683
-0.4860453533750002	0.7625722240501017
-0.4859843182187502	0.7611585692901837
-0.4859232830625002	0.7597318775543078
-0.4858622479062502	0.7582921808539365
-0.4858012127500002	0.7568395006534983
-0.4857401775937502	0.7553738479674209
-0.4856791424375002	0.7538952238731539
-0.4856181072812502	0.7524036201814508
-0.4855570721250002	0.7508990204643196
-0.4854960369687502	0.7493814014995607
-0.4854350018125002	0.7478507350089063
-0.4853739666562502	0.7463069897406848
-0.4853129315000002	0.7447501336791785
-0.4852518963437502	0.7431801360984038
-0.4851908611875002	0.7415969695870775
-0.4851298260312502	0.7400006120563163
-0.4850687908750002	0.7383910485576257
-0.4850077557187502	0.7367682728269282
-0.4849467205625002	0.7351322884019887
-0.4848856854062502	0.7334831091866033
-0.4848246502500002	0.7318207596355963
-0.4847636150937502	0.7301452748584654
-0.4847025799375002	0.7284567005037818
-0.4846415447812502	0.7267550920737108
-0.4845805096250002	0.725040513687161
-0.4845194744687502	0.7233130365433745
-0.4844584393125002	0.7215727373569585
-0.4843974041562502	0.719819696757297
-0.4843363690000002	0.718053997378884
-0.4842753338437502	0.7162757217702604
-0.4842142986875002	0.7144849504923637
-0.4841532635312502	0.7126817603752997
-0.4840922283750002	0.7108662227518017
-0.4840311932187502	0.709038401850794
-0.4839701580625002	0.7071983536568992
-0.4839091229062502	0.7053461251001691
-0.4838480877500002	0.7034817533099051
-0.4837870525937502	0.7016052651734934
-0.4837260174375002	0.6997166774794525
-0.4836649822812502	0.6978159974948338
-0.4836039471250002	0.6959032239955403
-0.4835429119687502	0.6939783487075785
-0.4834818768125002	0.6920413576679653
-0.4834208416562502	0.6900922325383456
-0.4833598065000002	0.6881309522585493
-0.4832987713437502	0.6861574948138152
-0.4832377361875002	0.6841718389211894
-0.4831767010312502	0.682173966008547
-0.4831156658750002	0.6801638624369477
-0.4830546307187502	0.6781415212420135
-0.4829935955625002	0.6761069431678749
-0.4829325604062502	0.6740601374220488
-0.4828715252500002	0.6720011224788808
-0.4828104900937502	0.6699299268305852
-0.4827494549375002	0.6678465892069121
-0.4826884197812502	0.6657511581549186
-0.4826273846250002	0.6636436913338988
-0.4825663494687502	0.6615242545469037
-0.4825053143125002	0.6593929204770406
-0.4824442791562502	0.6572497673381111
-0.4823832440000002	0.6550948774906924
-0.4823222088437502	0.6529283358106209
-0.4822611736875002	0.6507502277602554
-0.4822001385312502	0.6485606374595915
-0.4821391033750002	0.6463596457899643
-0.4820780682187502	0.6441473286830216
-0.4820170330625002	0.6419237558655069
-0.4819559979062502	0.6396889896294046
-0.4818949627500002	0.637443083548226
-0.4818339275937502	0.6351860814241985
-0.4817728924375002	0.6329180165169526
-0.4817118572812502	0.6306389115357458
-0.4816508221250002	0.6283487794022486
-0.4815897869687502	0.6260476242286367
-0.4815287518125002	0.6237354424074636
-0.4814677166562502	0.6214122239764083
-0.4814066815000002	0.6190779544985955
-0.4813456463437502	0.6167326171993568
-0.4812846111875002	0.6143761949119562
-0.4812235760312502	0.6120086721357576
-0.4811625408750002	0.6096300374139567
-0.4811015057187502	0.6072402854962942
-0.4810404705625002	0.6048394190826792
-0.4809794354062502	0.602427450465732
-0.4809184002500002	0.6000044028180107
-0.4808573650937502	0.5975703107297904
-0.4807963299375002	0.5951252202584738
-0.4807352947812502	0.5926691887862476
-0.4806742596250002	0.5902022845071886
-0.4806132244687502	0.5877245853563826
-0.4805521893125002	0.5852361776787753
-0.4804911541562502	0.5827371546429129
-0.4804301190000002	0.5802276139901428
-0.4803690838437502	0.5777076555051741
-0.4803080486875002	0.5751773787004162
-0.4802470135312502	0.5726368803986761
-0.4801859783750002	0.5700862522594964
-0.4801249432187502	0.5675255787410487
-0.4800639080625002	0.564954935339339
-0.4800028729062502	0.562374386864942
-0.4799418377500002	0.5597839861474039
-0.4798808025937502	0.5571837734071091
-0.4798197674375002	0.5545737762993852
-0.4797587322812502	0.5519540107220764
-0.4796976971250002	0.5493244820279782
-0.4796366619687502	0.5466851861991601
-0.4795756268125002	0.5440361111973939
-0.4795145916562502	0.5413772389473164
-0.4794535565000002	0.5387085480404843
-0.4793925213437502	0.5360300167297536
-0.4793314861875002	0.5333416256308039
-0.4792704510312502	0.5306433601036903
-0.4792094158750002	0.5279352126780131
-0.4791483807187502	0.5252171854142632
-0.4790873455625002	0.5224892918338897
-0.4790263104062502	0.5197515583919821
-0.4789652752500002	0.5170040254866931
-0.4789042400937502	0.5142467478483191
-0.4788432049375002	0.5114797942536363
-0.4787821697812502	0.50870324664411
-0.4787211346250002	0.5059171989018847
-0.4786600994687502	0.503121755337448
-0.4785990643125002	0.5003170284843119
-0.4785380291562502	0.4975031362570929
-0.4784769940000002	0.49468019910002237
-0.4784159588437502	0.491848337333804
-0.4783549236875002	0.4890076685117259
-0.4782938885312502	0.4861583045871842
-0.4782328533750002	0.4833003489628051
-0.4781718182187502	0.48043389394734454
-0.4781107830625002	0.4775590189724892
-0.4780497479062502	0.4746757894815223
-0.4779887127500002	0.471784256312816
-0.4779276775937502	0.46888445535477496
-0.4778666424375002	0.46597640756369385
-0.4778056072812502	0.4630601197258161
-0.4777445721250002	0.46013558601463606
-0.4776835369687502	0.4572027901089529
-0.4776225018125002	0.45426170771259916
-0.4775614666562502	0.45131230958493335
-0.4775004315000002	0.4483545648543548
-0.4774393963437502	0.4453884440449698
-0.4773783611875002	0.44241392193660906
-0.4773173260312502	0.4394309805269033
-0.4772562908750002	0.4364396119516935
-0.4771952557187502	0.4334398210784064
-0.4771342205625002	0.4304316273752131
-0.4770731854062502	0.42741506617318364
-0.4770121502500002	0.42439018964645614
-0.4769511150937502	0.42135706703760784
-0.4768900799375002	0.4183157838848713
-0.4768290447812502	0.41526644083135983
-0.4767680096250002	0.41220915189210056
-0.4767069744687502	0.409144041831143
-0.4766459393125002	0.40607124332585465
-0.4765849041562502	0.4029908942806715
-0.4765238690000002	0.3999031347328894
-0.4764628338437502	0.3968081031111798
-0.4764017986875002	0.3937059323754462
-0.4763407635312502	0.3905967466572225
-0.4762797283750002	0.38748065858222197
-0.4762186932187502	0.3843577670480777
-0.4761576580625002	0.38122815514957475
-0.4760966229062502	0.37809188848075015
-0.4760355877500002	0.37494901443591333
-0.4759745525937502	0.3717995625484986
-0.4759135174375002	0.368643545386178
-0.4758524822812502	0.3654809597542905
-0.4757914471250002	0.3623117884347203
-0.4757304119687502	0.359136002767627
-0.4756693768125002	0.3559535659733287
-0.4756083416562502	0.3527644369811359
-0.4755473065000002	0.349568574408377
-0.4754862713437502	0.3463659403420837
-0.4754252361875002	0.34315650411103693
-0.4753642010312502	0.33994024588321076
-0.4753031658750002	0.33671715954111875
-0.4752421307187502	0.333487255171383
-0.4751810955625002	0.3302505613847881
-0.4751200604062502	0.32700712681412625
-0.4750590252500002	0.32375702070951434
-0.4749979900937502	0.3205003329235736
-0.4749369549375002	0.3172371731380635
-0.4748759197812502	0.31396766929674036
-0.4748148846250002	0.310691965244731
-0.4747538494687502	0.3074102173807335
-0.4746928143125002	0.3041225904895343
-0.4746317791562502	0.3008292534743853
-0.4745707440000002	0.2975303754994776
-0.4745097088437502	0.29422612211652194
-0.4744486736875002	0.2909166508321341
-0.4743876385312502	0.2876021064946593
-0.4743266033750002	0.2842826173346864
-0.4742655682187502	0.2809582922308872
-0.4742045330625002	0.27762921895381176
-0.4741434979062502	0.2742954626540812
-0.4740824627500002	0.27095706476127135
-0.4740214275937502	0.2676140430392464
-0.4739603924375002	0.2642663929321421
-0.4738993572812502	0.26091408992048903
-0.4738383221250002	0.257557092571502
-0.4737772869687502	0.25419534615769634
-0.4737162518125002	0.2508287870059125
-0.4736552166562502	0.24745734739133146
-0.4735941815000002	0.24408096037985783
-0.4735331463437502	0.24069956438332293
-0.4734721111875002	0.23731310771378264
-0.4734110760312502	0.23392155330709544
-0.4733500408750002	0.23052488297609403
-0.4732890057187502	0.22712310030595642
-0.4732279705625002	0.22371623231658413
-0.4731669354062502	0.2203043304124294
-0.4731059002500002	0.2168874705082142
-0.4730448650937502	0.21346575222456746
-0.4729838299375002	0.21003929724385242
-0.4729227947812502	0.2066082466257092
-0.4728617596250002	0.20317275685074168
-0.4728007244687502	0.19973299490522214
-0.4727396893125002	0.1962891331954449
-0.4726786541562502	0.19284134448743054
-0.4726176190000002	0.1893897965247093
-0.4725565838437502	0.18593464683423117
-0.4724955486875002	0.18247603823404146
-0.4724345135312502	0.17901409465354862
-0.4723734783750002	0.1755489175923688
-0.4723124432187502	0.17208058404800924
-0.4722514080625002	0.16860914591167875
-0.4721903729062502	0.16513463070879153
-0.4721293377500002	0.16165704395721983
-0.4720683025937502	0.15817637344970326
-0.4720072674375002	0.15469259638556537
-0.4719462322812502	0.15120569082673951
-0.4718851971250002	0.14771565000062659
-0.4718241619687502	0.14422249399366413
-0.4717631268125002	0.1407262751850081
-0.4717020916562502	0.13722707830404876
-0.4716410565000002	0.1337250170636205
-0.4715800213437502	0.1302202288052307
-0.4715189861875002	0.12671286821633568
-0.4714579510312502	0.12320310046938554
-0.4713969158750002	0.11969109400034462
-0.4713358807187502	0.11617701324929887
-0.4712748455625002	0.11266101164353512
-0.4712138104062502	0.10914322521384029
-0.4711527752500002	0.10562376737753032
-0.4710917400937502	0.10210272526801849
-0.4710307049375002	0.098580157224746
-0.4709696697812502	0.09505609111567347
-0.4709086346250002	0.09153052413168487
-0.4708475994687502	0.08800342447728567
-0.4707865643125002	0.0844747345252768
-0.4707255291562502	0.08094437488373314
-0.4706644940000002	0.07741224931736379
-0.4706034588437502	0.0738782505738191
-0.4705424236875002	0.07034226670029081
-0.4704813885312502	0.06680418758389631
-0.4704203533750002	0.06326391171177156
-0.4703593182187502	0.05972135277395813
-0.4702982830625002	0.05617644555906332
-0.4702372479062502	0.052629150951385255
-0.4701762127500002	0.049079460154642124
-0.4701151775937502	0.04552739799768807
-0.4700541424375002	0.041973024901121626
-0.4699931072812502	0.03841643733533248
-0.4699320721250002	0.03485776671076964
-0.4698710369687502	0.031297176810714464
-0.4698100018125002	0.027734860182338603
-0.4697489666562502	0.024171033577287806
-0.4696879315000002	0.020605932564172206
-0.4696268963437502	0.01703980559573787
-0.4695658611875002	0.01347290732280689
-0.4695048260312502	0.00990549146385917
-0.4694437908750002	0.006337803977956348
-0.4693827557187502	0.002770076537665984
-0.4693217205625002	-0.0007974795195862245
-0.4692606854062502	-0.004364678200502288
-0.4691996502500002	-0.007931362860157476
-0.4691386150937502	-0.011497409233966107
-0.4690775799375002	-0.01506272715207865
-0.4690165447812502	-0.01862726094486525
-0.4689555096250002	-0.022190988731463853
