Time	Frequency
-0.5000483165312497	-0.6399528850786462
-0.4999872813749997	-0.6416288070802385
-0.4999262462187497	-0.6432964350014277
-0.4998652110624997	-0.6449556301905252
-0.4998041759062497	-0.6466062545524524
-0.4997431407499997	-0.6482481723743405
-0.4996821055937497	-0.6498812520297419
-0.4996210704374997	-0.6515053674821155
-0.4995600352812497	-0.6531203996621442
-0.4994990001249997	-0.6547262378489139
-0.4994379649687497	-0.6563227810536933
-0.4993769298124997	-0.6579099392093872
-0.4993158946562497	-0.6594876340498217
-0.4992548594999997	-0.6610557997886661
-0.4991938243437497	-0.6626143836795985
-0.4991327891874997	-0.6641633464251273
-0.4990717540312497	-0.6657026624178801
-0.4990107188749997	-0.6672323197858916
-0.4989496837187497	-0.6687523201656206
-0.4988886485624997	-0.6702626782184969
-0.4988276134062497	-0.6717634210154521
-0.4987665782499997	-0.6732545873566934
-0.4987055430937497	-0.6747362269391903
-0.4986445079374997	-0.6762083992540063
-0.4985834727812497	-0.6776711723038882
-0.4985224376249997	-0.6791246213170168
-0.4984614024687497	-0.6805688273860426
-0.4984003673124997	-0.6820038759294502
-0.4983393321562497	-0.6834298551146339
-0.4982782969999997	-0.6848468543213168
-0.4982172618437497	-0.6862549625557605
-0.4981562266874997	-0.6876542668248992
-0.4980951915312497	-0.6890448505969501
-0.4980341563749997	-0.6904267923668851
-0.4979731212187497	-0.6918001642282423
-0.4979120860624997	-0.6931650304874576
-0.4978510509062497	-0.6945214464469249
-0.4977900157499997	-0.6958694573701918
-0.4977289805937497	-0.697209097566486
-0.4976679454374997	-0.698540389561186
-0.4976069102812497	-0.6998633434337344
-0.4975458751249997	-0.7011779564082629
-0.4974848399687497	-0.7024842126333928
-0.4974238048124997	-0.7037820831122262
-0.4973627696562497	-0.7050715258518615
-0.4973017344999997	-0.706352486197134
-0.4972406993437497	-0.7076248972783196
-0.4971796641874997	-0.7088886806544761
-0.4971186290312497	-0.7101437471713591
-0.4970575938749997	-0.7113899979258009
-0.4969965587187497	-0.7126273253338293
-0.4969355235624997	-0.7138556143637002
-0.4968744884062497	-0.7150747439087186
-0.4968134532499997	-0.7162845882294389
-0.4967524180937497	-0.7174850184278069
-0.4966913829374997	-0.7186759039647259
-0.4966303477812497	-0.7198571142336279
-0.4965693126249997	-0.7210285201201219
-0.4965082774687497	-0.7221899954916604
-0.4964472423124997	-0.7233414186617321
-0.4963862071562497	-0.7244826738186371
-0.4963251719999997	-0.7256136523630217
-0.4962641368437497	-0.7267342541272065
-0.4962031016874997	-0.7278443884420664
-0.4961420665312497	-0.7289439750679482
-0.4960810313749997	-0.730032944994714
-0.4960199962187497	-0.7311112410557222
-0.4959589610624997	-0.7321788183713362
-0.4958979259062497	-0.7332356446613627
-0.4958368907499997	-0.7342817003870705
-0.4957758555937497	-0.7353169786976935
-0.4957148204374997	-0.7363414852115
-0.4956537852812497	-0.7373552376435033
-0.4955927501249997	-0.738358265278371
-0.4955317149687497	-0.7393506082850081
-0.4954706798124997	-0.7403323168663298
-0.4954096446562497	-0.7413034502791269
-0.4953486094999997	-0.7422640757588682
-0.4952875743437497	-0.743214267343488
-0.4952265391874997	-0.7441541046083195
-0.4951655040312497	-0.7450836713407486
-0.4951044688749997	-0.7460030541626969
-0.4950434337187497	-0.7469123411185019
-0.4949823985624997	-0.747811620262525
-0.4949213634062497	-0.7487009782672184
-0.4948603282499997	-0.7495804990660773
-0.4947992930937497	-0.7504502625475843
-0.4947382579374997	-0.7513103433171848
-0.4946772227812497	-0.7521608095499032
-0.4946161876249997	-0.753001721941481
-0.4945551524687497	-0.7538331327643238
-0.4944941173124997	-0.7546550850553126
-0.4944330821562497	-0.7554676119471602
-0.4943720469999997	-0.7562707361302012
-0.4943110118437497	-0.7570644694395829
-0.4942499766874997	-0.7578488125838727
-0.4941889415312497	-0.7586237550367568
-0.4941279063749997	-0.759389275092458
-0.4940668712187497	-0.7601453400736018
-0.4940058360624997	-0.7608919067001492
-0.4939448009062497	-0.7616289216231324
-0.4938837657499997	-0.7623563220930488
-0.4938227305937497	-0.7630740367501926
-0.4937616954374997	-0.7637819865510536
-0.4937006602812497	-0.7644800858085262
-0.4936396251249997	-0.7651682433020524
-0.4935785899687497	-0.7658463634439816
-0.4935175548124997	-0.7665143475097825
-0.4934565196562497	-0.7671720949237576
-0.4933954844999997	-0.7678195045635373
-0.4933344493437497	-0.7684564760612369
-0.4932734141874997	-0.7690829110859387
-0.4932123790312497	-0.7696987145627588
-0.4931513438749997	-0.7703037958214706
-0.4930903087187497	-0.7708980696889609
-0.4930292735624997	-0.77148145749598
-0.4929682384062497	-0.7720538879700792
-0.4929072032499997	-0.7726152979953876
-0.4928461680937497	-0.7731656332306304
-0.4927851329374997	-0.7737048485820424
-0.4927240977812497	-0.7742329085153153
-0.4926630626249997	-0.7747497872288924
-0.4926020274687497	-0.7752554686956707
-0.4925409923124997	-0.7757499465162968
-0.4924799571562497	-0.7762332235891374
-0.4924189219999997	-0.7767053116703364
-0.4923578868437497	-0.777166230836514
-0.4922968516874997	-0.7776160088270068
-0.4922358165312497	-0.7780546802923239
-0.4921747813749997	-0.7784822859754712
-0.4921137462187497	-0.7788988718085211
-0.4920527110624997	-0.7793044879101372
-0.4919916759062497	-0.7796991875371794
-0.4919306407499997	-0.7800830260960309
-0.4918696055937497	-0.7804560601968091
-0.4918085704374997	-0.7808183466388838
-0.4917475352812497	-0.7811699413767681
-0.4916865001249997	-0.7815108985886969
-0.4916254649687497	-0.7818412698292407
-0.4915644298124997	-0.7821611032228557
-0.4915033946562497	-0.7824704427423789
-0.4914423594999997	-0.7827693275837445
-0.4913813243437497	-0.7830577915998642
-0.4913202891874997	-0.7833358628144679
-0.4912592540312497	-0.7836035630525002
-0.4911982188749997	-0.7838609076980263
-0.4911371837187497	-0.7841079056155931
-0.4910761485624997	-0.7843445591881266
-0.4910151134062497	-0.7845708643435216
-0.4909540782499997	-0.7847868106426492
-0.4908930430937497	-0.7849923815590257
-0.4908320079374997	-0.7851875548504605
-0.4907709727812497	-0.7853723029581953
-0.4907099376249997	-0.7855465934886673
-0.4906489024687497	-0.7857103897662928
-0.4905878673124997	-0.7858636514334231
-0.4905268321562497	-0.786006335087557
-0.4904657969999997	-0.7861383949664194
-0.4904047618437497	-0.7862597836999586
-0.4903437266874997	-0.7863704531126052
-0.4902826915312497	-0.7864703550454989
-0.4902216563749997	-0.7865594421419927
-0.4901606212187497	-0.7866376685722644
-0.4900995860624997	-0.7867049907210641
-0.4900385509062497	-0.7867613678213775
-0.4899775157499997	-0.7868067625212436
-0.4899164805937497	-0.7868411414196221
-0.4898554454374997	-0.7868644755615303
-0.4897944102812497	-0.7868767408523845
-0.4897333751249997	-0.7868779183764478
-0.4896723399687497	-0.7868679945726077
-0.4896113048124997	-0.786846961266748
-0.4895502696562497	-0.7868148156067155
-0.4894892344999997	-0.786771559901326
-0.4894281993437497	-0.7867172013990503
-0.4893671641874997	-0.7866517519906457
-0.4893061290312497	-0.7865752277625863
-0.4892450938749997	-0.7864876484365245
-0.4891840587187497	-0.7863890367388139
-0.4891230235624997	-0.7862794176778111
-0.4890619884062497	-0.7861588177550431
-0.4890009532499997	-0.7860272641888403
-0.4889399180937497	-0.7858847841399574
-0.4888788829374997	-0.7857314039391333
-0.4888178477812497	-0.7855671484147804
-0.4887568126249997	-0.7853920402542006
-0.4886957774687497	-0.7852060992818345
-0.4886347423124997	-0.7850093417732188
-0.4885737071562497	-0.7848017799343977
-0.4885126719999997	-0.7845834215150436
-0.4884516368437497	-0.7843542695042999
-0.4883906016874997	-0.7841143219290106
-0.4883295665312497	-0.7838635717466985
-0.4882685313749997	-0.7836020067951459
-0.4882074962187497	-0.7833296098700144
-0.4881464610624997	-0.7830463589616
-0.4880854259062497	-0.7827522275974644
-0.4880243907499997	-0.7824471853184037
-0.4879633555937497	-0.7821311982779527
-0.4879023204374997	-0.7818042298952371
-0.4878412852812497	-0.7814662415359367
-0.4877802501249997	-0.7811171932810267
-0.4877192149687497	-0.7807570448590685
-0.4876581798124997	-0.7803857566031605
-0.4875971446562497	-0.7800032902526076
-0.4875361094999997	-0.779609609736579
-0.4874750743437497	-0.7792046821247357
-0.4874140391874997	-0.7787884786031973
-0.4873530040312497	-0.7783609752925041
-0.4872919688749997	-0.7779221539950759
-0.4872309337187497	-0.7774720029155571
-0.4871698985624997	-0.7770105171664038
-0.4871088634062497	-0.7765376990825832
-0.4870478282499997	-0.776053558609314
-0.4869867930937497	-0.7755581137240204
-0.4869257579374997	-0.7750513906700909
-0.4868647227812497	-0.7745334239985956
-0.4868036876249997	-0.7740042564959287
-0.4867426524687497	-0.7734639389912904
-0.4866816173124997	-0.772912529977195
-0.4866205821562497	-0.7723500949890415
-0.4865595469999997	-0.7717767058030893
-0.4864985118437497	-0.7711924395741697
-0.4864374766874997	-0.7705973779377626
-0.4863764415312497	-0.7699916060276458
-0.4863154063749997	-0.7693752113927076
-0.4862543712187497	-0.7687482827917473
-0.4861933360624997	-0.7681109088659847
-0.4861323009062497	-0.7674631768082416
-0.4860712657499997	-0.7668051711234927
-0.4860102305937497	-0.7661369724166505
-0.4859491954374997	-0.7654586561344043
-0.4858881602812497	-0.7647702913163754
-0.4858271251249997	-0.7640719394349438
-0.4857660899687497	-0.7633636532553549
-0.4857050548124997	-0.7626454757313734
-0.4856440196562497	-0.7619174391767951
-0.4855829844999997	-0.7611795647196336
-0.4855219493437497	-0.7604318617793369
-0.4854609141874997	-0.759674327600601
-0.4853998790312497	-0.7589069470774443
-0.4853388438749997	-0.7581296928163243
-0.4852778087187497	-0.7573425253553159
-0.4852167735624997	-0.7565453935678866
-0.4851557384062497	-0.7557382351886937
-0.4850947032499997	-0.7549209774888486
-0.4850336680937497	-0.7540935381434138
-0.4849726329374997	-0.753255826234067
-0.4849115977812497	-0.752407743428299
-0.4848505626249997	-0.7515491854028644
-0.4847895274687497	-0.7506800433936597
-0.4847284923124997	-0.7498002056934645
-0.4846674571562497	-0.7489095591435532
-0.4846064219999997	-0.7480079907832031
-0.4845453868437497	-0.747095389627381
-0.4844843516874997	-0.7461716484194144
-0.4844233165312497	-0.7452366652864785
-0.4843622813749997	-0.7442903453136508
-0.4843012462187497	-0.7433326021386782
-0.4842402110624997	-0.742363359557973
-0.4841791759062497	-0.741382552973316
-0.4841181407499997	-0.7403901306967274
-0.4840571055937497	-0.7393860551458078
-0.4839960704374997	-0.7383703037585178
-0.4839350352812497	-0.7373428696691827
-0.4838740001249997	-0.7363037623226603
-0.4838129649687497	-0.7352530079157137
-0.4837519298124997	-0.7341906495343407
-0.4836908946562497	-0.7331167470148353
-0.4836298594999997	-0.7320313765532457
-0.4835688243437497	-0.7309346301870668
-0.4835077891874997	-0.7298266151754268
-0.4834467540312497	-0.7287074530736113
-0.4833857188749997	-0.7275772784703551
-0.4833246837187497	-0.7264362375060381
-0.4832636485624997	-0.7252844862242959
-0.4832026134062497	-0.724122188820151
-0.4831415782499997	-0.7229495158533426
-0.4830805430937497	-0.7217666424352867
-0.4830195079374997	-0.720573746244705
-0.4829584727812497	-0.7193710052708769
-0.4828974376249997	-0.7181585955370264
-0.4828364024687497	-0.7169366889702458
-0.4827753673124997	-0.7157054512654595
-0.4827143321562497	-0.7144650397373151
-0.4826532969999997	-0.7132156012806314
-0.4825922618437497	-0.7119572704493871
-0.4825312266874997	-0.7106901676117358
-0.4824701915312497	-0.709414397243321
-0.4824091563749997	-0.7081300465240233
-0.4823481212187497	-0.7068371842301658
-0.4822870860624997	-0.705535859698105
-0.4822260509062497	-0.7042261019136145
-0.4821650157499997	-0.7029079191026467
-0.4821039805937497	-0.7015812988034288
-0.4820429454374997	-0.7002462080747807
-0.4819819102812497	-0.6989025937399141
-0.4819208751249997	-0.6975503827834927
-0.4818598399687497	-0.6961894830989934
-0.4817988048124997	-0.694819784682881
-0.4817377696562497	-0.6934411611030632
-0.4816767344999997	-0.6920534711224061
-0.4816156993437497	-0.6906565606436852
-0.4815546641874997	-0.6892502649629096
-0.4814936290312497	-0.6878344110880374
-0.4814325938749997	-0.6864088201325791
-0.4813715587187497	-0.6849733098185062
-0.4813105235624997	-0.6835276969488088
-0.4812494884062497	-0.6820717998724227
-0.4811884532499997	-0.6806054410483254
-0.4811274180937497	-0.6791284496796332
-0.4810663829374997	-0.6776406643279389
-0.4810053477812497	-0.6761419354136511
-0.4809443126249997	-0.674632127484163
-0.4808832774687497	-0.6731111211399816
-0.4808222423124997	-0.6715788147208293
-0.4807612071562497	-0.670035125984432
-0.4807001719999997	-0.6684799935761662
-0.4806391368437497	-0.6669133779811941
-0.4805781016874997	-0.6653352622750328
-0.4805170665312497	-0.663745652873784
-0.4804560313749997	-0.6621445799493237
-0.4803949962187497	-0.660532097340438
-0.4803339610624997	-0.6589082820137531
-0.4802729259062497	-0.6572732332842339
-0.4802118907499997	-0.6556270720392087
-0.4801508555937497	-0.6539699398004986
-0.4800898204374997	-0.652301997344147
-0.4800287852812497	-0.6506234229151354
-0.4799677501249997	-0.6489344101926885
-0.4799067149687497	-0.6472351661412356
-0.4798456798124997	-0.6455259088078706
-0.4797846446562497	-0.6438068648922175
-0.4797236094999997	-0.642078267021387
-0.4796625743437497	-0.6403403509922683
-0.4796015391874997	-0.6385933530824308
-0.4795405040312497	-0.6368375073710393
-0.4794794688749997	-0.6350730431186266
-0.4794184337187497	-0.6333001820708435
-0.4793573985624997	-0.6315191356081158
-0.4792963634062497	-0.6297301021493429
-0.4792353282499997	-0.6279332650276744
-0.4791742930937497	-0.6261287905351876
-0.4791132579374997	-0.6243168260368824
-0.4790522227812497	-0.6224974983959051
-0.4789911876249997	-0.6206709128331083
-0.4789301524687497	-0.6188371520880441
-0.4788691173124997	-0.6169962756656412
-0.4788080821562497	-0.6151483193139339
-0.4787470469999997	-0.6132932951339467
-0.4786860118437497	-0.6114311921693514
-0.4786249766874997	-0.6095619769922187
-0.4785639415312497	-0.6076855943308239
-0.4785029063749997	-0.6058019681109079
-0.4784418712187497	-0.6039110029564451
-0.4783808360624997	-0.6020125859308454
-0.4783198009062497	-0.6001065883730775
-0.4782587657499997	-0.5981928678302589
-0.4781977305937497	-0.5962712702519226
-0.4781366954374997	-0.5943416323753339
-0.4780756602812497	-0.5924037839558763
-0.4780146251249997	-0.5904575500634032
-0.4779535899687497	-0.5885027538510457
-0.4778925548124997	-0.5865392194662044
-0.4778315196562497	-0.5845667747301386
-0.4777704844999997	-0.5825852536646876
-0.4777094493437497	-0.580594498882672
-0.4776484141874997	-0.578594363853727
-0.4775873790312497	-0.576584715028426
-0.4775263438749997	-0.5745654336155152
-0.4774653087187497	-0.5725364171714229
-0.4774042735624997	-0.5704975811797389
-0.4773432384062497	-0.568448860256098
-0.4772822032499997	-0.5663902088447508
-0.4772211680937497	-0.5643216015709983
-0.4771601329374997	-0.562243033333428
-0.4770990977812497	-0.560154519284497
-0.4770380626249997	-0.5580560946340296
-0.4769770274687497	-0.5559478141917448
-0.4769159923124997	-0.5538297516560882
-0.4768549571562497	-0.5517019985029409
-0.4767939219999997	-0.5495646626686198
-0.4767328868437497	-0.5474178672162135
-0.4766718516874997	-0.5452617487076925
-0.4766108165312497	-0.5430964552348542
-0.4765497813749997	-0.5409221442492493
-0.4764887462187497	-0.5387389801754494
-0.4764277110624997	-0.536547131929907
-0.4763666759062497	-0.5343467705406788
-0.4763056407499997	-0.5321380668475667
-0.4762446055937497	-0.5299211890591868
-0.4761835704374997	-0.5276963002379177
-0.4761225352812497	-0.5254635561449408
-0.4760615001249997	-0.5232231034107204
-0.4760004649687497	-0.520975077859462
-0.4759394298124997	-0.5187196031354976
-0.4758783946562497	-0.516456789459086
-0.4758173594999997	-0.5141867325069243
-0.4757563243437497	-0.5119095127780363
-0.4756952891874997	-0.5096251953655845
-0.4756342540312497	-0.5073338296038077
-0.4755732188749997	-0.5050354489856662
-0.4755121837187497	-0.5027300745400164
-0.4754511485624997	-0.5004177236426728
-0.4753901134062497	-0.4980984200427738
-0.4753290782499997	-0.49577220042914955
-0.4752680430937497	-0.4934391176255231
-0.4752070079374997	-0.4910992416570543
-0.4751459727812497	-0.4887526590951486
-0.4750849376249997	-0.486399471309599
-0.4750239024687497	-0.4840397922485797
-0.4749628673124997	-0.4816737458334122
-0.4749018321562497	-0.4793014629806001
-0.4748407969999997	-0.47692307839642717
-0.4747797618437497	-0.4745387269889703
-0.4747187266874997	-0.47214854003238327
-0.4746576915312497	-0.4697526415832791
-0.4745966563749997	-0.4673511451390929
-0.4745356212187497	-0.46494415040407144
-0.4744745860624997	-0.4625317403926398
-0.4744135509062497	-0.4601139789168808
-0.4743525157499997	-0.45769090826101544
-0.4742914805937497	-0.45526254709600744
-0.4742304454374997	-0.45282888891109735
-0.4741694102812497	-0.45038990121112626
-0.4741083751249997	-0.4479455253536389
-0.4740473399687497	-0.44549567667541673
-0.4739863048124997	-0.4430402448922597
-0.4739252696562497	-0.4405790949351761
-0.4738642344999997	-0.43811206842290573
-0.4738031993437497	-0.4356389857732284
-0.4737421641874997	-0.43315964857476214
-0.4736811290312497	-0.4306738421423013
-0.4736200938749997	-0.42818133851821233
-0.4735590587187497	-0.4256818999855154
-0.4734980235624997	-0.42317528299292007
-0.4734369884062497	-0.42066124232009255
-0.4733759532499997	-0.4181395352756417
-0.4733149180937497	-0.4156099257527457
-0.4732538829374997	-0.41307218819633595
-0.4731928477812497	-0.4105261116011809
-0.4731318126249997	-0.4079715033239594
-0.4730707774687497	-0.405408192731606
-0.4730097423124997	-0.4028360349065083
-0.4729487071562497	-0.4002549139964107
-0.4728876719999997	-0.397664745886365
-0.4728266368437497	-0.39506548051604773
-0.4727656016874997	-0.39245710392507177
-0.4727045665312497	-0.38983963964549545
-0.4726435313749997	-0.3872131494409595
-0.4725824962187497	-0.3845777337067175
-0.4725214610624997	-0.3819335313529143
-0.4724604259062497	-0.37928071908405037
-0.4723993907499997	-0.37661951030110413
-0.4723383555937497	-0.37395015334171744
-0.4722773204374997	-0.37127292884041724
-0.4722162852812497	-0.3685881466283137
-0.4721552501249997	-0.36589614245893126
-0.4720942149687497	-0.36319727429923315
-0.4720331798124997	-0.36049191805912817
-0.4719721446562497	-0.35778046307896627
-0.4719111094999997	-0.3550633073780858
-0.4718500743437497	-0.3523408525865499
-0.4717890391874997	-0.34961349889637117
-0.4717280040312497	-0.3468816400424226
-0.4716669688749997	-0.3441456582239296
-0.4716059337187497	-0.34140591909758694
-0.4715448985624997	-0.3386627668126624
-0.4714838634062497	-0.3359165194013453
-0.4714228282499997	-0.3331674647003435
-0.4713617930937497	-0.330415856403669
-0.4713007579374997	-0.32766191048929805
-0.4712397227812497	-0.32490580257538754
-0.4711786876249997	-0.3221476659460212
-0.4711176524687497	-0.3193875897297309
-0.4710566173124997	-0.3166256174048994
-0.4709955821562497	-0.31386174619868057
-0.4709345469999997	-0.31109592742197906
-0.4708735118437497	-0.30832806741023544
-0.4708124766874997	-0.30555802899528123
-0.4707514415312497	-0.30278563373553763
-0.4706904063749997	-0.30001066497547024
-0.4706293712187497	-0.2972328714665871
-0.4705683360624997	-0.2944519713377261
-0.4705073009062497	-0.2916676563706361
-0.4704462657499997	-0.28887959674962915
-0.4703852305937497	-0.28608744641118256
-0.4703241954374997	-0.28329084870508037
-0.4702631602812497	-0.28048944209330634
-0.4702021251249997	-0.27768286598354947
-0.4701410899687497	-0.27487076678005473
-0.4700800548124997	-0.272052803828
-0.4700190196562497	-0.2692286550789281
-0.4699579844999997	-0.266398022694114
-0.4698969493437497	-0.263560638347114
-0.4698359141874997	-0.2607162678714824
-0.4697748790312497	-0.2578647155616702
-0.4697138438749997	-0.25500582824065243
-0.4696528087187497	-0.25213949871767927
-0.4695917735624997	-0.2492656684957923
