Time	Frequency
-0.5000307484687498	-0.6998139088296628
-0.49996971331249984	-0.6990178442366158
-0.49990867815624984	-0.6982134375165767
-0.49984764299999984	-0.6974007145381679
-0.49978660784374984	-0.696579689650975
-0.49972557268749984	-0.6957503654175694
-0.49966453753124984	-0.6949127327079041
-0.49960350237499984	-0.6940667711851954
-0.49954246721874984	-0.693212450229371
-0.49948143206249984	-0.6923497302461381
-0.49942039690624984	-0.6914785642601015
-0.49935936174999984	-0.6905988997805036
-0.49929832659374984	-0.6897106808913654
-0.49923729143749984	-0.6888138504396449
-0.49917625628124984	-0.6879083522361645
-0.49911522112499984	-0.686994133168007
-0.49905418596874984	-0.6860711451679342
-0.49899315081249984	-0.6851393471272826
-0.49893211565624984	-0.6841987066594526
-0.49887108049999984	-0.6832492015220648
-0.49881004534374984	-0.6822908207156604
-0.49874901018749984	-0.6813235651790853
-0.49868797503124984	-0.6803474478979655
-0.49862693987499984	-0.679362493561196
-0.49856590471874984	-0.6783687380259056
-0.49850486956249984	-0.6773662275721772
-0.49844383440624984	-0.676355017795861
-0.49838279924999984	-0.675335172081405
-0.49832176409374984	-0.6743067596848269
-0.49826072893749984	-0.6732698536170294
-0.49819969378124984	-0.6722245286263879
-0.49813865862499984	-0.6711708592549029
-0.49807762346874984	-0.6701089176103789
-0.49801658831249984	-0.6690387710011892
-0.49795555315624984	-0.6679604801256237
-0.49789451799999984	-0.6668740978021556
-0.49783348284374984	-0.6657796676653054
-0.49777244768749984	-0.6646772230036738
-0.49771141253124984	-0.6635667861516048
-0.49765037737499984	-0.6624483683249475
-0.49758934221874984	-0.6613219698166127
-0.49752830706249984	-0.6601875805831745
-0.49746727190624984	-0.659045181119749
-0.49740623674999984	-0.657894743507808
-0.49734520159374984	-0.6567362327622398
-0.49728416643749984	-0.6555696085933913
-0.49722313128124984	-0.65439482724478
-0.49716209612499984	-0.6532118432448899
-0.49710106096874984	-0.6520206113441046
-0.49704002581249984	-0.6508210884738892
-0.49697899065624984	-0.6496132353144282
-0.49691795549999984	-0.6483970176101135
-0.49685692034374984	-0.647172407590372
-0.49679588518749984	-0.6459393853874885
-0.49673485003124984	-0.6446979400881058
-0.49667381487499984	-0.64344807039431
-0.49661277971874984	-0.6421897850186932
-0.49655174456249984	-0.6409231026916189
-0.49649070940624984	-0.6396480517384099
-0.49642967424999984	-0.6383646693867654
-0.49636863909374984	-0.6370730009403414
-0.49630760393749984	-0.6357730988609399
-0.49624656878124984	-0.6344650215489931
-0.49618553362499984	-0.633148831696014
-0.49612449846874984	-0.6318245945491329
-0.49606346331249984	-0.6304923763419886
-0.49600242815624984	-0.6291522427524374
-0.49594139299999984	-0.6278042572856137
-0.49588035784374984	-0.6264484797721411
-0.49581932268749984	-0.6250849651312778
-0.49575828753124984	-0.6237137622537606
-0.49569725237499984	-0.6223349129827805
-0.49563621721874984	-0.6209484513307738
-0.49557518206249984	-0.6195544029207951
-0.49551414690624984	-0.6181527846720924
-0.49545311174999984	-0.6167436047463353
-0.49539207659374984	-0.6153268626973576
-0.49533104143749984	-0.6139025499122202
-0.49527000628124984	-0.6124706504481792
-0.49520897112499984	-0.6110311420285274
-0.49514793596874984	-0.609583996889126
-0.49508690081249984	-0.6081291827562887
-0.49502586565624984	-0.6066666643239266
-0.49496483049999984	-0.6051964049701416
-0.49490379534374984	-0.6037183683552456
-0.49484276018749984	-0.6022325198183478
-0.49478172503124984	-0.6007388276204005
-0.49472068987499984	-0.5992372641330377
-0.49465965471874984	-0.5977278069961174
-0.49459861956249984	-0.596210440166871
-0.49453758440624984	-0.5946851547805301
-0.49447654924999984	-0.5931519498311363
-0.49441551409374984	-0.5916108327475176
-0.49435447893749984	-0.5900618198799782
-0.49429344378124984	-0.5885049367748273
-0.49423240862499984	-0.5869402181378162
-0.49417137346874984	-0.585367707495884
-0.49411033831249984	-0.5837874564962694
-0.49404930315624984	-0.5821995238820356
-0.49398826799999984	-0.5806039743726932
-0.49392723284374984	-0.5790008774849863
-0.49386619768749984	-0.577390306155531
-0.49380516253124984	-0.5757723351318923
-0.49374412737499984	-0.5741470392635311
-0.49368309221874984	-0.5725144918447729
-0.49362205706249984	-0.5708747629819462
-0.49356102190624984	-0.5692279180222475
-0.49349998674999984	-0.5675740161633082
-0.49343895159374984	-0.5659131091680293
-0.49337791643749984	-0.5642452401106819
-0.49331688128124984	-0.5625704422802026
-0.49325584612499984	-0.5608887385468758
-0.49319481096874984	-0.5592001412826683
-0.49313377581249984	-0.5575046524569791
-0.49307274065624984	-0.5558022637163234
-0.49301170549999984	-0.5540929567893691
-0.49295067034374984	-0.5523767043627406
-0.49288963518749984	-0.5506534711933195
-0.49282860003124984	-0.5489232155609419
-0.49276756487499984	-0.5471858912192077
-0.49270652971874984	-0.5454414494306786
-0.49264549456249984	-0.5436898407730054
-0.49258445940624984	-0.5419310169552682
-0.49252342424999984	-0.5401649328895012
-0.49246238909374984	-0.5383915489575771
-0.49240135393749984	-0.536610833058275
-0.49234031878124984	-0.5348227620664499
-0.49227928362499984	-0.5330273229268726
-0.49221824846874984	-0.5312245136766568
-0.49215721331249984	-0.5294143442798808
-0.49209617815624984	-0.5275968370310755
-0.49203514299999984	-0.5257720264982295
-0.49197410784374984	-0.5239399592160355
-0.49191307268749984	-0.522100693123644
-0.49185203753124984	-0.5202542964657974
-0.49179100237499984	-0.5184008461912062
-0.49172996721874984	-0.516540426124727
-0.49166893206249984	-0.5146731249048689
-0.49160789690624984	-0.5127990337010454
-0.49154686174999984	-0.5109182439875178
-0.49148582659374984	-0.509030845515068
-0.49142479143749984	-0.5071369243254851
-0.49136375628124984	-0.5052365606436641
-0.49130272112499984	-0.5033298268775741
-0.49124168596874984	-0.5014167860453833
-0.49118065081249984	-0.4994974906688867
-0.49111961565624984	-0.4975719820981683
-0.49105858049999984	-0.49564029005853333
-0.49099754534374984	-0.4937024322542676
-0.49093651018749984	-0.4917584143978722
-0.49087547503124984	-0.4898082309398083
-0.49081443987499984	-0.48785186614681353
-0.49075340471874984	-0.4858892952279212
-0.49069236956249984	-0.48392048568083185
-0.49063133440624984	-0.4819453990198358
-0.49057029924999984	-0.479963992827616
-0.49050926409374984	-0.47797622309789084
-0.49044822893749984	-0.4759820465063759
-0.49038719378124984	-0.4739814223185132
-0.49032615862499984	-0.4719743142861263
-0.49026512346874984	-0.4699606924843791
-0.49020408831249984	-0.4679405348267521
-0.49014305315624984	-0.4659138283896202
-0.49008201799999984	-0.4638805704814295
-0.49002098284374984	-0.46184076950118275
-0.48995994768749984	-0.45979444548731996
-0.48989891253124984	-0.4577416299844504
-0.48983787737499984	-0.45568236555725183
-0.48977684221874984	-0.4536167052890768
-0.48971580706249984	-0.45154471204160096
-0.48965477190624984	-0.44946645740265057
-0.48959373674999984	-0.4473820203047806
-0.48953270159374984	-0.4452914853650651
-0.48947166643749984	-0.44319494115676683
-0.48941063128124984	-0.4410924783043121
-0.48934959612499984	-0.43898418739994444
-0.48928856096874984	-0.43687015702124454
-0.48922752581249984	-0.43475047180753784
-0.48916649065624984	-0.4326252106307276
-0.48910545549999984	-0.43049444505851114
-0.48904442034374984	-0.4283582378842111
-0.48898338518749984	-0.4262166416306287
-0.48892235003124984	-0.42406969752024626
-0.48886131487499984	-0.4219174350263186
-0.48880027971874984	-0.41975987159500705
-0.48873924456249984	-0.4175970125462455
-0.48867820940624984	-0.4154288515688439
-0.48861717424999984	-0.41325537183154964
-0.48855613909374984	-0.41107654714245667
-0.48849510393749984	-0.40889234306285827
-0.48843406878124984	-0.40670271846004513
-0.48837303362499984	-0.40450762751500574
-0.48831199846874984	-0.4023070219502984
-0.48825096331249984	-0.4001008532288353
-0.48818992815624984	-0.3978890746004097
-0.48812889299999984	-0.39567164333372384
-0.48806785784374984	-0.39344852318688633
-0.48800682268749984	-0.391219686691688
-0.48794578753124984	-0.38898511699158994
-0.48788475237499984	-0.38674480929127253
-0.48782371721874984	-0.3844987719220572
-0.48776268206249984	-0.38224702703741964
-0.48770164690624984	-0.3799896113388919
-0.48764061174999984	-0.3777265766391942
-0.48757957659374984	-0.375457989569952
-0.48751854143749984	-0.3731839307405423
-0.48745750628124984	-0.37090449372214485
-0.48739647112499984	-0.3686197833190687
-0.48733543596874984	-0.3663299129964035
-0.48727440081249984	-0.36403500211693657
-0.48721336565624984	-0.3617351733686142
-0.48715233049999984	-0.35943055020673853
-0.48709129534374984	-0.35712125402914274
-0.48703026018749984	-0.35480740104435854
-0.48696922503124984	-0.35248909907375275
-0.48690818987499984	-0.3501664445630938
-0.48684715471874984	-0.34783951994600226
-0.48678611956249984	-0.3455083914770282
-0.48672508440624984	-0.3431731077080697
-0.48666404924999984	-0.34083369867763924
-0.48660301409374984	-0.33849017558895583
-0.48654197893749984	-0.336142530774679
-0.48648094378124984	-0.33379073819342503
-0.48641990862499984	-0.33143475477944273
-0.48635887346874984	-0.32907452266725246
-0.48629783831249984	-0.32670997198122265
-0.48623680315624984	-0.32434102374226387
-0.48617576799999984	-0.3219675929104463
-0.48611473284374984	-0.31958959170021783
-0.48605369768749984	-0.31720693309038844
-0.48599266253124984	-0.3148195346909016
-0.48593162737499984	-0.31242732273245305
-0.48587059221874984	-0.31003023547623104
-0.48580955706249984	-0.3076282261465156
-0.48574852190624984	-0.30522126596144145
-0.48568748674999984	-0.3028093468288912
-0.48562645159374984	-0.30039248301293003
-0.48556541643749984	-0.2979707121834624
-0.48550438128124984	-0.29554409597685
-0.48544334612499984	-0.2931127194092764
-0.48538231096874984	-0.29067668937334257
-0.48532127581249984	-0.28823613269592513
-0.48526024065624984	-0.28579119341289994
-0.48519920549999984	-0.2833420290956233
-0.48513817034374984	-0.2808888064716236
-0.48507713518749984	-0.27843169665215317
-0.48501610003124984	-0.2759708703337005
-0.48495506487499984	-0.2735064930064465
-0.48489402971874984	-0.2710387202146543
-0.48483299456249984	-0.2685676931504182
-0.48477195940624984	-0.26609353467932584
-0.48471092424999984	-0.26361634590568295
-0.48464988909374984	-0.2611362033451871
-0.48458885393749984	-0.2586531567685998
-0.48452781878124984	-0.2561672280913522
-0.48446678362499984	-0.25367841132485014
-0.48440574846874984	-0.25118667317238796
-0.48434471331249984	-0.24869195438936512
-0.48428367815624984	-0.24619417218498443
-0.48422264299999984	-0.24369322344489944
-0.48416160784374984	-0.24118898866565264
-0.48410057268749984	-0.23868133651092582
-0.48403953753124984	-0.23617012875347557
-0.48397850237499984	-0.23365522586544693
-0.48391746721874984	-0.2311364933015672
-0.48385643206249984	-0.22861380776526044
-0.48379539690624984	-0.22608706299627793
-0.48373436174999984	-0.2235561749885397
-0.48367332659374984	-0.22102108645459978
-0.48361229143749984	-0.21848177024085602
-0.48355125628124984	-0.2159382315570132
-0.48349022112499984	-0.21339050932419132
-0.48342918596874984	-0.21083867670302026
-0.48336815081249984	-0.20828284032085229
-0.48330711565624984	-0.2057231379941853
-0.48324608049999984	-0.20315973540307408
-0.48318504534374984	-0.20059282234646153
-0.48312401018749984	-0.1980226084381646
-0.48306297503124984	-0.19544931764394502
-0.48300193987499984	-0.19287318186430055
-0.48294090471874984	-0.19029443430508922
-0.48287986956249984	-0.18771330289218388
-0.48281883440624984	-0.18513000346663872
-0.48275779924999984	-0.18254473268792293
-0.48269676409374984	-0.17995766121329992
-0.48263572893749984	-0.17736892805795365
-0.48257469378124984	-0.17477863648052125
-0.48251365862499984	-0.1721868509270624
-0.48245262346874984	-0.1695935949909097
-0.48239158831249984	-0.16699885108166027
-0.48233055315624984	-0.16440256186902782
-0.48226951799999984	-0.16180463279893062
-0.48220848284374984	-0.1592049355226677
-0.48214744768749984	-0.15660331263408994
-0.48208641253124984	-0.15399958361968774
-0.48202537737499984	-0.1513935515145403
-0.48196434221874984	-0.14878500997331792
-0.48190330706249984	-0.14617375086760862
-0.48184227190624984	-0.1435595724450352
-0.48178123674999984	-0.14094228769006167
-0.48172020159374984	-0.13832173249776927
-0.48165916643749984	-0.13569777315840828
-0.48159813128124984	-0.13307031263371363
-0.48153709612499984	-0.13043929546696476
-0.48147606096874984	-0.12780471114913816
-0.48141502581249984	-0.12516659579723877
-0.48135399065624984	-0.12252503238623597
-0.48129295549999984	-0.11988014954881833
-0.48123192034374984	-0.11723211883153975
-0.48117088518749984	-0.11458115088506478
-0.48110985003124984	-0.11192749073304084
-0.48104881487499984	-0.10927141155235857
-0.48098777971874984	-0.10661320707573613
-0.48092674456249984	-0.10395318329714313
-0.48086570940624984	-0.10129164974335374
-0.48080467424999984	-0.09862891040235125
-0.48074363909374984	-0.09596525453951094
-0.48068260393749984	-0.09330094797684808
-0.48062156878124984	-0.09063622547473708
-0.48056053362499984	-0.08797128426532737
-0.48049949846874984	-0.08530627857536188
-0.48043846331249984	-0.08264131534581301
-0.48037742815624984	-0.07997645165814914
-0.48031639299999984	-0.0773116940641554
-0.48025535784374984	-0.0746469993586799
-0.48019432268749984	-0.07198227659967238
-0.48013328753124984	-0.06931739072627331
-0.48007225237499984	-0.06665216785275578
-0.48001121721874984	-0.06398640225663837
-0.47995018206249984	-0.06131986482469087
-0.47988914690624984	-0.058652312002940056
-0.47982811174999984	-0.05598349480398435
-0.47976707659374984	-0.053313168053313674
-0.47970604143749984	-0.05064109953161934
-0.47964500628124984	-0.047967078469848566
-0.47958397112499984	-0.04529092301768886
-0.47952293596874984	-0.04261248630681951
-0.47946190081249984	-0.039931661217327254
-0.47940086565624984	-0.037248384139798835
-0.47933983049999984	-0.0345626373177336
-0.47927879534374984	-0.031874449059766094
-0.47921776018749984	-0.029183891725260803
-0.47915672503124984	-0.026491077943714577
-0.47909568987499984	-0.023796155388922022
-0.47903465471874984	-0.021099300135856987
-0.47897361956249984	-0.01840070871859327
-0.47891258440624984	-0.015700589305257837
-0.47885154924999984	-0.012999152452582185
-0.47879051409374984	-0.010296601605542077
-0.47872947893749984	-0.007593123705352327
-0.47866844378124984	-0.004888880804891969
-0.47860740862499984	-0.0021840032753779044
-0.47854637346874984	0.0005214155182260191
-0.47848533831249984	0.0032273214474867378
-0.47842430315624984	0.005933692708341545
-0.47836326799999984	0.00864052022341943
-0.47830223284374984	0.011347783559437023
-0.47824119768749984	0.014055434101327894
-0.47818016253124984	0.016763388090904233
-0.47811912737499984	0.019471526137575752
-0.47805809221874984	0.02217969677356706
-0.47799705706249984	0.02488772270752632
-0.47793602190624984	0.027595408775481455
-0.47787498674999984	0.030302550956861216
-0.47781395159374984	0.033008945657056
-0.47775291643749984	0.035714398856267995
-0.47769188128124984	0.03841873516412947
-0.47763084612499984	0.04112180620749548
-0.47756981096874984	0.04382349769540458
-0.47750877581249984	0.04652373493430195
-0.47744774065624984	0.04922248649930085
-0.47738670549999984	0.05191976604903298
-0.47732567034374984	0.05461563274012698
-0.47726463518749984	0.05731019024974223
-0.47720360003124984	0.060003583736633406
-0.47714256487499984	0.06269599474861166
-0.47708152971874984	0.06538763510899566
-0.47702049456249984	0.06807874010121462
-0.47695945940624984	0.07076956035149012
-0.47689842424999984	0.07346035263340485
-0.47683738909374984	0.07615137055171278
-0.47677635393749984	0.07884285551099722
-0.47671531878124984	0.08153502814515544
-0.47665428362499984	0.084228080537104
-0.47659324846874984	0.08692216912851107
-0.47653221331249984	0.08961740843929966
-0.47647117815624984	0.09231386644923786
-0.47641014299999984	0.09501156177076756
-0.47634910784374984	0.09771046209615754
-0.47628807268749984	0.10041048417073337
-0.47622703753124984	0.1031114956704346
-0.47616600237499984	0.1058133187581504
-0.47610496721874984	0.10851573496677723
-0.47604393206249984	0.11121849136256345
-0.47598289690624984	0.11392130818090757
-0.47592186174999984	0.11662388738706803
-0.47586082659374984	0.1193259211619454
-0.47579979143749984	0.12202710044188818
-0.47573875628124984	0.12472712397930838
-0.47567772112499984	0.12742570727535685
-0.47561668596874984	0.13012259052948294
-0.47555565081249984	0.1328175455445774
-0.47549461565624984	0.13551038165204166
-0.47543358049999984	0.13820095026521698
-0.47537254534374984	0.14088914778283734
-0.47531151018749984	0.14357491703944125
-0.47525047503124984	0.14625824735058865
-0.47518943987499984	0.14893917287165495
-0.47512840471874984	0.15161776931745197
-0.47506736956249984	0.15429414943723913
-0.47500633440624984	0.15696845746518237
-0.47494529924999984	0.15964086254526733
-0.47488426409374984	0.16231155125785887
-0.47482322893749984	0.16498071964580668
-0.47476219378124984	0.16764856520178478
-0.47470115862499984	0.17031527908081942
-0.47464012346874984	0.17298103860861289
-0.47457908831249984	0.17564600033759584
-0.47451805315624984	0.17831029409105245
-0.47445701799999984	0.1809740182083288
-0.47439598284374984	0.1836372359590459
-0.47433494768749984	0.1862999730300378
-0.47427391253124984	0.1889622160991111
-0.47421287737499984	0.19162391275867247
-0.47415184221874984	0.19428497314085535
-0.47409080706249984	0.19694527317334173
-0.47402977190624984	0.199604658756496
-0.47396873674999984	0.20226295049991344
-0.47390770159374984	0.20491994925216228
-0.47384666643749984	0.20757544227040298
-0.47378563128124984	0.21022920970537975
-0.47372459612499984	0.21288103129355052
-0.47366356096874984	0.2155306929793726
-0.47360252581249984	0.21817799301700122
-0.47354149065624984	0.22082274732095064
-0.47348045549999984	0.22346479401491592
-0.47341942034374984	0.22610399705509104
-0.47335838518749984	0.22874024897660938
-0.47329735003124984	0.2313734726998698
-0.47323631487499984	0.2340036220055169
-0.47317527971874984	0.23663068074641105
-0.47311424456249984	0.2392546611515832
-0.47305320940624984	0.24187560111873743
-0.47299217424999984	0.24449356031261502
-0.47293113909374984	0.24710861528805822
-0.47287010393749984	0.24972085417838982
-0.47280906878124984	0.2523303712926541
-0.47274803362499984	0.254937261486535
-0.47268699846874984	0.25754161444824664
-0.47262596331249984	0.26014350941282466
-0.47256492815624984	0.26274301022859764
-0.47250389299999984	0.265340160603414
-0.47244285784374984	0.2679349800964315
-0.47238182268749984	0.2705274612145666
-0.47232078753124984	0.2731175675201512
-0.47225975237499984	0.27570523298392446
-0.47219871721874984	0.27829036263084683
-0.47213768206249984	0.2808728340763828
-0.47207664690624984	0.28345249993064736
-0.47201561174999984	0.28602919127656756
-0.47195457659374984	0.28860272211511845
-0.47189354143749984	0.291172894628312
-0.47183250628124984	0.2937395051634235
-0.47177147112499984	0.2963023506581672
-0.47171043596874984	0.2988612351703576
-0.47164940081249984	0.3014159763076349
-0.47158836565624984	0.3039664113184272
-0.47152733049999984	0.30651240252660494
-0.47146629534374984	0.30905384189682245
-0.47140526018749984	0.3115906546227957
-0.47134422503124984	0.3141228016414388
-0.47128318987499984	0.3166502808786828
-0.47122215471874984	0.3191731269349733
-0.47116111956249984	0.32169140922472933
-0.47110008440624984	0.3242052289969341
-0.47103904924999984	0.3267147152535347
-0.47097801409374984	0.329220019156268
-0.47091697893749984	0.3317213072522373
-0.47085594378124984	0.3342187541894935
-0.47079490862499984	0.3367125349030064
-0.47073387346874984	0.3392028163899365
-0.47067283831249984	0.3416897497941067
-0.47061180315624984	0.34417346323407755
-0.47055076799999984	0.3466540553029737
-0.47048973284374984	0.3491315892123017
