Time	Frequency
-0.5000305100000002	0.7963532090288824
-0.4999694748437502	0.7962884867888664
-0.4999084396875002	0.7962114842854905
-0.4998474045312502	0.796122251976155
-0.4997863693750002	0.7960208431392438
-0.4997253342187502	0.7959073125146002
-0.4996642990625002	0.7957817148103099
-0.4996032639062502	0.7956441032384035
-0.4995422287500002	0.7954945282394251
-0.4994811935937502	0.7953330363973626
-0.4994201584375002	0.7951596694374129
-0.4993591232812502	0.7949744632632487
-0.4992980881250002	0.7947774471076638
-0.4992370529687502	0.7945686428838434
-0.4991760178125002	0.7943480648067741
-0.4991149826562502	0.794115719252192
-0.4990539475000002	0.7938716047405274
-0.4989929123437502	0.7936157120851705
-0.4989318771875002	0.7933480247530278
-0.4988708420312502	0.7930685193694471
-0.4988098068750002	0.7927771664145806
-0.4987487717187502	0.7924739311285153
-0.4986877365625002	0.7921587744957063
-0.4986267014062502	0.7918316542483177
-0.4985656662500002	0.7914925259099899
-0.4985046310937502	0.7911413439279602
-0.4984435959375002	0.7907780628614002
-0.4983825607812502	0.7904026385131699
-0.4983215256250002	0.7900150290040998
-0.4982604904687502	0.7896151958173486
-0.4981994553125002	0.7892031047399377
-0.4981384201562502	0.788778726650607
-0.4980773850000002	0.7883420381968863
-0.4980163498437502	0.7878930223498947
-0.4979553146875002	0.7874316687519393
-0.4978942795312502	0.7869579739004765
-0.4978332443750002	0.786471941238898
-0.4977722092187502	0.7859735810772196
-0.4977111740625002	0.7854629103118859
-0.4976501389062502	0.784939952029385
-0.4975891037500002	0.7844047349982347
-0.4975280685937502	0.7838572930119971
-0.4974670334375002	0.7832976641277075
-0.4974059982812502	0.7827258898112559
-0.4973449631250002	0.7821420139850268
-0.4972839279687502	0.7815460820799287
-0.4972228928125002	0.7809381401275628
-0.4971618576562502	0.7803182338018507
-0.4971008225000002	0.7796864074235099
-0.4970397873437502	0.7790427030420867
-0.4969787521875002	0.7783871596364575
-0.4969177170312502	0.7777198123662648
-0.4968566818750002	0.7770406918211491
-0.4967956467187502	0.7763498233648638
-0.4967346115625002	0.7756472267029724
-0.4966735764062502	0.7749329156549517
-0.4966125412500002	0.7742068980625447
-0.4965515060937502	0.7734691758157184
-0.4964904709375002	0.7727197449803486
-0.4964294357812502	0.7719585960329519
-0.4963684006250002	0.7711857142607929
-0.4963073654687502	0.7704010803347835
-0.4962463303125002	0.7696046709540865
-0.4961852951562502	0.7687964595726761
-0.4961242600000002	0.767976417263753
-0.4960632248437502	0.7671445136123296
-0.4960021896875002	0.7663007176304761
-0.4959411545312502	0.7654449987653544
-0.4958801193750002	0.7645773279524919
-0.4958190842187502	0.7636976786568074
-0.4957580490625002	0.7628060277950534
-0.4956970139062502	0.7619023565234889
-0.4956359787500002	0.7609866509929561
-0.4955749435937502	0.7600589030283053
-0.4955139084375002	0.759119110644965
-0.4954528732812502	0.7581672783898817
-0.4953918381250002	0.7572034175192035
-0.4953308029687502	0.7562275460716094
-0.4952697678125002	0.7552396888282927
-0.4952087326562502	0.7542398770042538
-0.4951476975000002	0.7532281476469351
-0.4950866623437502	0.7522045429975843
-0.4950256271875002	0.7511691099147491
-0.4949645920312502	0.7501218991075802
-0.4949035568750002	0.749062964147102
-0.4948425217187502	0.7479923604726021
-0.4947814865625002	0.7469101443343749
-0.4947204514062502	0.7458163716117838
-0.4946594162500002	0.7447110966291879
-0.4945983810937502	0.7435943710577835
-0.4945373459375002	0.7424662430582221
-0.4944763107812502	0.7413267566240177
-0.4944152756250002	0.7401759508054513
-0.4943542404687502	0.7390138588357857
-0.4942932053125002	0.7378405075150754
-0.4942321701562502	0.7366559169292402
-0.4941711350000002	0.7354601003389477
-0.4941100998437502	0.7342530642188941
-0.4940490646875002	0.7330348085039108
-0.4939880295312502	0.73180532701031
-0.4939269943750002	0.7305646079865686
-0.4938659592187502	0.7293126348189678
-0.4938049240625002	0.7280493868851017
-0.4937438889062502	0.7267748404122724
-0.4936828537500002	0.725488969345899
-0.4936218185937502	0.7241917464045612
-0.4935607834375002	0.7228831442862392
-0.4934997482812502	0.7215631368486564
-0.4934387131250002	0.7202317001768036
-0.4933776779687502	0.7188888135261831
-0.4933166428125002	0.7175344602325018
-0.4932556076562502	0.716168628724927
-0.4931945725000002	0.7147913134611319
-0.4931335373437502	0.7134025154169451
-0.4930725021875002	0.7120022422809614
-0.4930114670312502	0.7105905087272325
-0.4929504318750002	0.7091673366439248
-0.4928893967187502	0.7077327550730084
-0.4928283615625002	0.7062867999030197
-0.4927673264062502	0.704829513359404
-0.4927062912500002	0.703360943303431
-0.4926452560937502	0.7018811423994212
-0.4925842209375002	0.7003901671453282
-0.4925231857812502	0.6988880769030915
-0.4924621506250002	0.6973749330130146
-0.4924011154687502	0.695850797740868
-0.4923400803125002	0.6943157330752041
-0.4922790451562502	0.6927697996186353
-0.4922180100000002	0.6912130555234335
-0.4921569748437502	0.6896455554650837
-0.4920959396875002	0.6880673497637462
-0.4920349045312502	0.6864784836078606
-0.4919738693750002	0.684878996349274
-0.4919128342187502	0.6832689209805041
-0.4918517990625002	0.6816482838641622
-0.4917907639062502	0.6800171046704592
-0.4917297287500002	0.6783753965140059
-0.4916686935937502	0.6767231662462231
-0.4916076584375002	0.6750604147937878
-0.4915466232812502	0.6733871376455586
-0.4914855881250002	0.6717033256962434
-0.4914245529687502	0.6700089663375046
-0.4913635178125002	0.6683040445167651
-0.4913024826562502	0.6665885437741819
-0.4912414475000002	0.6648624473460866
-0.4911804123437502	0.6631257392722357
-0.4911193771875002	0.6613784055824268
-0.4910583420312502	0.6596204355379218
-0.4909973068750002	0.6578518226428037
-0.4909362717187502	0.6560725654103253
-0.4908752365625002	0.6542826681169321
-0.4908142014062502	0.6524821415458821
-0.4907531662500002	0.6506710034939189
-0.4906921310937502	0.6488492789405814
-0.4906310959375002	0.6470170000107108
-0.4905700607812502	0.6451742058897185
-0.4905090256250002	0.6433209426181739
-0.4904479904687502	0.641457262508709
-0.4903869553125002	0.6395832232516072
-0.4903259201562502	0.6376988870369582
-0.4902648850000002	0.6358043196933295
-0.4902038498437502	0.6338995895828555
-0.4901428146875002	0.6319847662989858
-0.4900817795312502	0.6300599194457716
-0.4900207443750002	0.6281251174515424
-0.4899597092187502	0.6261804263051948
-0.4898986740625002	0.6242259083379297
-0.4898376389062502	0.6222616210438796
-0.4897766037500002	0.6202876159964134
-0.4897155685937502	0.6183039381258068
-0.4896545334375002	0.6163106252721767
-0.4895934982812502	0.6143077078194773
-0.4895324631250002	0.6122952085139268
-0.4894714279687502	0.6102731424123158
-0.4894103928125002	0.6082415169324926
-0.4893493576562502	0.6062003322981201
-0.4892883225000002	0.6041495824522071
-0.4892272873437502	0.6020892561830362
-0.4891662521875002	0.6000193381830157
-0.4891052170312502	0.5979398100000256
-0.4890441818750002	0.5958506511792657
-0.4889831467187502	0.5937518407160968
-0.4889221115625002	0.5916433585899402
-0.4888610764062502	0.589525187250137
-0.4888000412500002	0.5873973130363478
-0.4887390060937502	0.5852597274725104
-0.4886779709375002	0.5831124283771504
-0.4886169357812502	0.5809554208688026
-0.4885559006250002	0.5787887183443585
-0.4884948654687502	0.5766123431456893
-0.4884338303125002	0.5744263266876238
-0.4883727951562502	0.5722307093423024
-0.4883117600000002	0.5700255403876603
-0.4882507248437502	0.5678108778535885
-0.4881896896875002	0.5655867879643024
-0.4881286545312502	0.5633533442701325
-0.4880676193750002	0.5611106265915184
-0.4880065842187502	0.5588587196619624
-0.4879455490625002	0.5565977116606492
-0.4878845139062502	0.5543276928628161
-0.4878234787500002	0.5520487542459092
-0.4877624435937502	0.5497609859338158
-0.4877014084375002	0.5474644755393703
-0.4876403732812502	0.5451593065369441
-0.4875793381250002	0.5428455568023419
-0.4875183029687502	0.540523297300732
-0.4874572678125002	0.5381925909418512
-0.4873962326562502	0.535853491737481
-0.4873351975000002	0.5335060442212345
-0.4872741623437502	0.5311502830372485
-0.4872131271875002	0.5287862328133209
-0.4871520920312502	0.5264139084072332
-0.4870910568750002	0.5240333153842099
-0.4870300217187502	0.5216444505999486
-0.4869689865625002	0.5192473030284156
-0.4869079514062502	0.5168418550013684
-0.4868469162500002	0.5144280837049455
-0.4867858810937502	0.5120059627384733
-0.4867248459375002	0.5095754637854011
-0.4866638107812502	0.5071365583527608
-0.4866027756250002	0.5046892194686222
-0.4865417404687502	0.5022334234623393
-0.4864807053125002	0.49976915176441367
-0.4864196701562502	0.49729639238309487
-0.4863586350000002	0.49481514106889746
-0.4862975998437502	0.49232540250249585
-0.4862365646875002	0.4898271915621677
-0.4861755295312502	0.4873205342030902
-0.4861144943750002	0.4848054676359344
-0.4860534592187502	0.48228204015809684
-0.4859924240625002	0.4797503109354307
-0.4859313889062502	0.47721034959825936
-0.4858703537500002	0.4746622354800046
-0.4858093185937502	0.4721060564657464
-0.4857482834375002	0.46954190754308384
-0.4856872482812502	0.46696988921340055
-0.4856262131250002	0.4643901058334994
-0.4855651779687502	0.4618026637811799
-0.4855041428125002	0.4592076693770955
-0.4854431076562502	0.4566052268070762
-0.4853820725000002	0.45399543629091027
-0.4853210373437502	0.4513783924239653
-0.4852600021875002	0.44875418257657396
-0.4851989670312502	0.44612288540657175
-0.4851379318750002	0.44348456970361966
-0.4850768967187502	0.4408392936353011
-0.4850158615625002	0.4381871041751607
-0.4849548264062502	0.43552803671297075
-0.4848937912500002	0.43286211509185796
-0.4848327560937502	0.43018935216143256
-0.4847717209375002	0.4275097507506768
-0.4847106857812502	0.4248233048351205
-0.4846496506250002	0.4221300007761415
-0.4845886154687502	0.41942981885834435
-0.4845275803125002	0.4167227352329785
-0.4844665451562502	0.41400872384771487
-0.4844055100000002	0.4112877581583761
-0.4843444748437502	0.4085598129484999
-0.4842834396875002	0.4058248663438079
-0.4842224045312502	0.4030829018462152
-0.4841613693750002	0.40033391021540055
-0.4841003342187502	0.3975778910365059
-0.4840392990625002	0.39481485394203447
-0.4839782639062502	0.39204481947139996
-0.4839172287500002	0.38926781966796326
-0.4838561935937502	0.38648389843161735
-0.4837951584375002	0.3836931113685811
-0.4837341232812502	0.38089552523971876
-0.4836730881250002	0.37809121726361383
-0.4836120529687502	0.37528027417871807
-0.4835510178125002	0.3724627910770877
-0.4834899826562502	0.36963887000202056
-0.4834289475000002	0.3668086181200786
-0.4833679123437502	0.36397214562542574
-0.4833068771875002	0.36112956363413584
-0.4832458420312502	0.35828098216321835
-0.4831848068750002	0.35542650816859367
-0.4831237717187502	0.3525662434227835
-0.4830627365625002	0.34970028250153723
-0.4830017014062502	0.3468287113224227
-0.4829406662500002	0.34395160591402135
-0.4828796310937502	0.3410690311505502
-0.4828185959375002	0.33818103969240776
-0.4827575607812502	0.3352876713704569
-0.4826965256250002	0.33238895313916705
-0.4826354904687502	0.32948489951096666
-0.4825744553125002	0.32657551330743795
-0.4825134201562502	0.32366078666548065
-0.4824523850000002	0.32074070233615026
-0.4823913498437502	0.31781523536721773
-0.4823303146875002	0.3148843550639017
-0.4822692795312502	0.3119480270909354
-0.4822082443750002	0.30900621575088416
-0.4821472092187502	0.306058886289877
-0.4820861740625002	0.30310600705861745
-0.4820251389062502	0.30014755165005297
-0.4819641037500002	0.29718350099871327
-0.4819030685937502	0.294213845279025
-0.4818420334375002	0.29123858558543053
-0.4817809982812502	0.28825773530402554
-0.4817199631250002	0.285271321104191
-0.4816589279687502	0.28227938356511495
-0.4815978928125002	0.2792819773687281
-0.4815368576562502	0.27627917114161454
-0.4814758225000002	0.2732710470775295
-0.4814147873437502	0.2702577001658144
-0.4813537521875002	0.26723923681861844
-0.4812927170312502	0.26421577310229233
-0.4812316818750002	0.2611874328718194
-0.4811706467187502	0.2581543456705449
-0.4811096115625002	0.2551166442529658
-0.4810485764062502	0.2520744619709287
-0.4809875412500002	0.2490279302414618
-0.4809265060937502	0.24597717619139056
-0.4808654709375002	0.24292232049551618
-0.4808044357812502	0.2398634751924623
-0.4807434006250002	0.23680074143438862
-0.4806823654687502	0.23373420765116476
-0.4806213303125002	0.23066394843035992
-0.4805602951562502	0.22759002377748325
-0.4804992600000002	0.22451247853193823
-0.4804382248437502	0.22143134222015085
-0.4803771896875002	0.21834662946667593
-0.4803161545312502	0.2152583407310954
-0.4802551193750002	0.21216646337410322
-0.4801940842187502	0.20907097317865297
-0.4801330490625002	0.20597183624567686
-0.4800720139062502	0.20286901121831763
-0.4800109787500002	0.19976245166959658
-0.4799499435937502	0.1966521084429735
-0.4798889084375002	0.1935379321966035
-0.4798278732812502	0.19041987626438434
-0.4797668381250002	0.18729789931203675
-0.4797058029687502	0.18417196756343468
-0.4796447678125002	0.18104205687805833
-0.4795837326562502	0.17790815470537208
-0.4795226975000002	0.17477026183226593
-0.4794616623437502	0.17162839385023893
-0.4794006271875002	0.16848258206711494
-0.4793395920312502	0.165332873881807
-0.4792785568750002	0.16217933284714298
-0.4792175217187502	0.1590220383494962
-0.4791564865625002	0.1558610848565544
-0.4790954514062502	0.1526965806755175
-0.4790344162500002	0.14952864612057545
-0.4789733810937502	0.1463574114295196
-0.4789123459375002	0.14318301466743322
-0.4788513107812502	0.1400055994045317
-0.4787902756250002	0.13682531227209677
-0.4787292404687502	0.13364230052575454
-0.4786682053125002	0.13045670938656828
-0.4786071701562502	0.12726867927145832
-0.4785461350000002	0.12407834321808689
-0.4784850998437502	0.120885824612757
-0.4784240646875002	0.11769123526124822
-0.4783630295312502	0.11449467366289098
-0.4783019943750002	0.11129622353438472
-0.4782409592187502	0.10809595288543102
-0.4781799240625002	0.10489391361211893
-0.4781188889062502	0.10169014141330646
-0.4780578537500002	0.0984846560138152
-0.4779968185937502	0.09527746183251565
-0.4779357834375002	0.09206854923585782
-0.4778747482812502	0.08885789628809218
-0.4778137131250002	0.08564547077766017
-0.4777526779687502	0.08243123243057165
-0.4776916428125002	0.07921513542747387
-0.4776306076562502	0.07599713114121313
-0.4775695725000002	0.0727771707277548
-0.4775085373437502	0.06955520762965874
-0.4774475021875002	0.06633120022590978
-0.4773864670312502	0.06310511444574103
-0.4773254318750002	0.05987692623139133
-0.4772643967187502	0.05664662375320772
-0.4772033615625002	0.053414209137713
-0.4771423264062502	0.050179699810600914
-0.4770812912500002	0.04694312954155802
-0.4770202560937502	0.043704548959994566
-0.4769592209375002	0.040464025509095496
-0.4768981857812502	0.03722164298812243
-0.4768371506250002	0.03397750068510051
-0.4767761154687502	0.03073171205267961
-0.4767150803125002	0.027484402956308194
-0.4766540451562502	0.024235709596968063
-0.4765930100000002	0.020985776231917774
-0.4765319748437502	0.017734752780437343
-0.4764709396875002	0.014482792301090324
-0.4764099045312502	0.011230048209846934
-0.4763488693750002	0.007976671339938455
-0.4762878342187502	0.004722807151710725
-0.4762267990625002	0.0014685931306276626
-0.4761657639062502	-0.0017858437375220524
-0.4761047287500002	-0.005040389361900996
-0.4760436935937502	-0.00829494457356408
-0.4759826584375002	-0.011549426555301402
-0.4759216232812502	-0.014803769741749594
-0.4758605881250002	-0.018057926370227184
-0.4757995529687502	-0.021311866616460912
-0.4757385178125002	-0.02456557823840845
-0.4756774826562502	-0.027819065722191557
-0.4756164475000002	-0.031072348786148434
-0.4755554123437502	-0.03432546036437433
-0.4754943771875002	-0.037578444462771705
-0.4754333420312502	-0.04083135386712294
-0.4753723068750002	-0.044084247364107085
-0.4753112717187502	-0.04733718658805559
-0.4752502365625002	-0.05059023296477832
-0.4751892014062502	-0.053843444832511154
-0.4751281662500002	-0.057096874621190695
-0.4750671310937502	-0.06035056622772961
-0.4750060959375002	-0.06360455270218185
-0.4749450607812502	-0.06685885417805866
-0.4748840256250002	-0.07011347602957207
-0.4748229904687502	-0.07336840748237966
-0.4747619553125002	-0.07662362087131802
-0.4747009201562502	-0.07987907144111739
-0.4746398850000002	-0.0831346976466682
-0.4745788498437502	-0.08639042199549712
-0.4745178146875002	-0.08964615232675838
-0.4744567795312502	-0.09290178341483249
-0.4743957443750002	-0.09615719891353416
-0.4743347092187502	-0.0994122737684978
-0.4742736740625002	-0.10266687708852576
-0.4742126389062502	-0.1059208751348262
-0.4741516037500002	-0.10917413411156815
-0.4740905685937502	-0.11242652278152578
-0.4740295334375002	-0.11567791492380776
-0.4739684982812502	-0.11892819145194937
-0.4739074631250002	-0.12217724200456934
-0.4738464279687502	-0.1254249658217862
-0.4737853928125002	-0.12867127160674335
-0.4737243576562502	-0.1319160757047874
-0.4736633225000002	-0.13515929752103856
-0.4736022873437502	-0.13840085185363668
-0.4735412521875002	-0.1416406404282181
-0.4734802170312502	-0.14487854637313924
-0.4734191818750002	-0.14811443328314566
-0.4733581467187502	-0.1513481481030515
-0.4732971115625002	-0.15457952632095465
-0.4732360764062502	-0.15780839798197352
-0.4731750412500002	-0.16103459391087935
-0.4731140060937502	-0.1642579522050644
-0.4730529709375002	-0.1674783247934834
-0.4729919357812502	-0.17069558355471984
-0.4729309006250002	-0.17390962549406883
-0.4728698654687502	-0.17712037684300755
-0.4728088303125002	-0.18032779622612807
-0.4727477951562502	-0.1835318768388462
-0.4726867600000002	-0.18673264726511155
-0.4726257248437502	-0.18993017081334743
-0.4725646896875002	-0.19312454389206143
-0.4725036545312502	-0.1963158936060631
-0.4724426193750002	-0.19950437407824784
-0.4723815842187502	-0.20269016149613014
-0.4723205490625002	-0.2058734483406342
-0.4722595139062502	-0.20905443713594096
-0.4721984787500002	-0.21223333396451005
-0.4721374435937502	-0.21541034165613085
-0.4720764084375002	-0.21858565267186023
-0.4720153732812502	-0.22175944222297958
-0.4719543381250002	-0.22493186202287585
-0.4718933029687502	-0.2281030346342204
-0.4718322678125002	-0.23127304833449022
-0.4717712326562502	-0.23444195273056373
-0.4717101975000002	-0.23760975545594293
-0.4716491623437502	-0.24077642004271704
-0.4715881271875002	-0.24394186495625922
-0.4715270920312502	-0.2471059638561061
-0.4714660568750002	-0.2502685471387291
-0.4714050217187502	-0.25342940463307795
-0.4713439865625002	-0.25658828925619226
-0.4712829514062502	-0.25974492172282193
-0.4712219162500002	-0.262898996257653
-0.4711608810937502	-0.26605018685941784
-0.4710998459375002	-0.2691981540850394
-0.4710388107812502	-0.27234255246041683
-0.4709777756250002	-0.2754830380407345
-0.4709167404687502	-0.27861927584588303
-0.4708557053125002	-0.2817509472119357
-0.4707946701562502	-0.28487775668660087
-0.4707336350000002	-0.28799943820202056
-0.4706725998437502	-0.29111576056489696
-0.4706115646875002	-0.2942265320865444
-0.4705505295312502	-0.2973316042146308
-0.4704894943750002	-0.3004308740874943
-0.4704284592187502	-0.303524285798591
-0.4703674240625002	-0.30661183038166673
-0.4703063889062502	-0.3096935446904127
-0.4702453537500002	-0.3127695091034393
-0.4701843185937502	-0.31583984396414844
-0.4701232834375002	-0.3189047049766354
-0.4700622482812502	-0.3219642777246589
-0.4700012131250002	-0.3250187713484037
-0.4699401779687502	-0.32806841168802814
-0.4698791428125002	-0.33111343415013494
-0.4698181076562502	-0.33415407617554616
-0.4697570725000002	-0.3371905694187461
-0.4696960373437502	-0.34022313219138733
-0.4696350021875002	-0.3432519624548968
-0.4695739670312502	-0.34627723129446353
-0.4695129318750002	-0.34929907693499224
-0.4694518967187502	-0.35231759951038005
-0.4693908615625002	-0.3553328569026283
-0.4693298264062502	-0.3583448617979914
