Time	Frequency
-0.5000483165312497	-1.4909864973606994e-21
-0.4999872813749997	-1.4948911239875398e-21
-0.4999262462187497	-1.4987764267513628e-21
-0.4998652110624997	-1.5026420826162073e-21
-0.4998041759062497	-1.5064877698429221e-21
-0.4997431407499997	-1.5103131722425203e-21
-0.4996821055937497	-1.514117983146712e-21
-0.4996210704374997	-1.5179019089107862e-21
-0.4995600352812497	-1.521664672122532e-21
-0.4994990001249997	-1.525406014820166e-21
-0.4994379649687497	-1.529125701716312e-21
-0.4993769298124997	-1.5328235229692373e-21
-0.4993158946562497	-1.536499296231442e-21
-0.4992548594999997	-1.5401528682314386e-21
-0.4991938243437497	-1.5437841160788459e-21
-0.4991327891874997	-1.547392948216878e-21
-0.4990717540312497	-1.5509793049845074e-21
-0.4990107188749997	-1.55454315872198e-21
-0.4989496837187497	-1.5580845132419792e-21
-0.4988886485624997	-1.5616034027032602e-21
-0.4988276134062497	-1.5650998901767057e-21
-0.4987665782499997	-1.5685740660605095e-21
-0.4987055430937497	-1.5720260461405555e-21
-0.4986445079374997	-1.5754559690213795e-21
-0.4985834727812497	-1.5788639931383606e-21
-0.4985224376249997	-1.5822502937609653e-21
-0.4984614024687497	-1.5856150598219255e-21
-0.4984003673124997	-1.5889584903324664e-21
-0.4983393321562497	-1.5922807907083267e-21
-0.4982782969999997	-1.5955821691897722e-21
-0.4982172618437497	-1.598862833146967e-21
-0.4981562266874997	-1.6021229852919649e-21
-0.4980951915312497	-1.605362820092183e-21
-0.4980341563749997	-1.6085825204281851e-21
-0.4979731212187497	-1.6117822542662298e-21
-0.4979120860624997	-1.6149621714298886e-21
-0.4978510509062497	-1.6181224007647772e-21
-0.4977900157499997	-1.621263047727623e-21
-0.4977289805937497	-1.6243841922533676e-21
-0.4976679454374997	-1.6274858868224915e-21
-0.4976069102812497	-1.6305681549184617e-21
-0.4975458751249997	-1.6336309900739558e-21
-0.4974848399687497	-1.6366743553578303e-21
-0.4974238048124997	-1.639698183212013e-21
-0.4973627696562497	-1.6427023757998494e-21
-0.4973017344999997	-1.6456868057836645e-21
-0.4972406993437497	-1.64865131736784e-21
-0.4971796641874997	-1.6515957277976938e-21
-0.4971186290312497	-1.654519829358286e-21
-0.4970575938749997	-1.657423391621268e-21
-0.4969965587187497	-1.6603061639334205e-21
-0.4969355235624997	-1.6631678782894238e-21
-0.4968744884062497	-1.6660082525303095e-21
-0.4968134532499997	-1.6688269937035482e-21
-0.4967524180937497	-1.6716238014975672e-21
-0.4966913829374997	-1.6743983717774285e-21
-0.4966303477812497	-1.6771504002509978e-21
-0.4965693126249997	-1.6798795861026713e-21
-0.4965082774687497	-1.6825856354640568e-21
-0.4964472423124997	-1.6852682648253065e-21
-0.4963862071562497	-1.6879272043639311e-21
-0.4963251719999997	-1.690562201061039e-21
-0.4962641368437497	-1.6931730215421718e-21
-0.4962031016874997	-1.6957594545629638e-21
-0.4961420665312497	-1.698321313178027e-21
-0.4960810313749997	-1.700858436604928e-21
-0.4960199962187497	-1.703370691654657e-21
-0.4959589610624997	-1.7058579737649345e-21
-0.4958979259062497	-1.7083202077281417e-21
-0.4958368907499997	-1.7107573480222017e-21
-0.4957758555937497	-1.71316937868594e-21
-0.4957148204374997	-1.7155563128090103e-21
-0.4956537852812497	-1.7179181916645223e-21
-0.4955927501249997	-1.7202550834810047e-21
-0.4955317149687497	-1.722567081845497e-21
-0.4954706798124997	-1.7248543037226537e-21
-0.4954096446562497	-1.727116887171193e-21
-0.4953486094999997	-1.72935498883886e-21
-0.4952875743437497	-1.7315687812220414e-21
-0.4952265391874997	-1.733758449718366e-21
-0.4951655040312497	-1.7359241895388613e-21
-0.4951044688749997	-1.738066202498566e-21
-0.4950434337187497	-1.7401846937265164e-21
-0.4949823985624997	-1.7422798683751017e-21
-0.4949213634062497	-1.7443519283770878e-21
-0.4948603282499997	-1.746401069283914e-21
-0.4947992930937497	-1.7484274772227965e-21
-0.4947382579374997	-1.7504313260123296e-21
-0.4946772227812497	-1.7524127744892718e-21
-0.4946161876249997	-1.7543719640648624e-21
-0.4945551524687497	-1.7563090165253337e-21
-0.4944941173124997	-1.7582240321396425e-21
-0.4944330821562497	-1.760117088101639e-21
-0.4943720469999997	-1.7619882372761273e-21
-0.4943110118437497	-1.763837507237081e-21
-0.4942499766874997	-1.7656648996353474e-21
-0.4941889415312497	-1.767470389946322e-21
-0.4941279063749997	-1.7692539275990633e-21
-0.4940668712187497	-1.771015436460582e-21
-0.4940058360624997	-1.7727548156954038e-21
-0.4939448009062497	-1.7744719410090797e-21
-0.4938837657499997	-1.776166666205441e-21
-0.4938227305937497	-1.7778388250279374e-21
-0.4937616954374997	-1.7794882333180035e-21
-0.4937006602812497	-1.7811146914385706e-21
-0.4936396251249997	-1.7827179868605245e-21
-0.4935785899687497	-1.7842978968801325e-21
-0.4935175548124997	-1.785854191485238e-21
-0.4934565196562497	-1.787386636350767e-21
-0.4933954844999997	-1.7888949958779885e-21
-0.4933344493437497	-1.7903790362259983e-21
-0.4932734141874997	-1.7918385282996966e-21
-0.4932123790312497	-1.793273250590014e-21
-0.4931513438749997	-1.7946829918500173e-21
-0.4930903087187497	-1.796067553640159e-21
-0.4930292735624997	-1.7974267526738374e-21
-0.4929682384062497	-1.7987604228977986e-21
-0.4929072032499997	-1.8000684172622946e-21
-0.4928461680937497	-1.801350609160962e-21
-0.4927851329374997	-1.802606893532638e-21
-0.4927240977812497	-1.803837187588143e-21
-0.4926630626249997	-1.8050414312140314e-21
-0.4926020274687497	-1.8062195870697506e-21
-0.4925409923124997	-1.8073716402458446e-21
-0.4924799571562497	-1.808497597495039e-21
-0.4924189219999997	-1.8095974862072426e-21
-0.4923578868437497	-1.8106713531577273e-21
-0.4922968516874997	-1.811719262974651e-21
-0.4922358165312497	-1.8127412963880843e-21
-0.4921747813749997	-1.813737548322627e-21
-0.4921137462187497	-1.8147081257925634e-21
-0.4920527110624997	-1.815653145566256e-21
-0.4919916759062497	-1.816572731723556e-21
-0.4919306407499997	-1.817467013352355e-21
-0.4918696055937497	-1.818336122345053e-21
-0.4918085704374997	-1.819180191034975e-21
-0.4917475352812497	-1.8199993497870654e-21
-0.4916865001249997	-1.820793724827833e-21
-0.4916254649687497	-1.8215634362710695e-21
-0.4915644298124997	-1.822308596238957e-21
-0.4915033946562497	-1.82302930718108e-21
-0.4914423594999997	-1.8237256604176105e-21
-0.4913813243437497	-1.8243977348203468e-21
-0.4913202891874997	-1.825045595680037e-21
-0.4912592540312497	-1.8256692938452644e-21
-0.4911982188749997	-1.8262688651584084e-21
-0.4911371837187497	-1.8268443302724262e-21
-0.4910761485624997	-1.827395694739149e-21
-0.4910151134062497	-1.8279229490712323e-21
-0.4909540782499997	-1.8284260689471973e-21
-0.4908930430937497	-1.8289050158630152e-21
-0.4908320079374997	-1.8293597379979877e-21
-0.4907709727812497	-1.829790171144674e-21
-0.4907099376249997	-1.8301962398313225e-21
-0.4906489024687497	-1.8305778586097684e-21
-0.4905878673124997	-1.8309349334532317e-21
-0.4905268321562497	-1.83126736324092e-21
-0.4904657969999997	-1.8315750413541483e-21
-0.4904047618437497	-1.8318578574283746e-21
-0.4903437266874997	-1.8321156992223293e-21
-0.4902826915312497	-1.832348454533675e-21
-0.4902216563749997	-1.8325560130290994e-21
-0.4901606212187497	-1.832738267932545e-21
-0.4900995860624997	-1.83289511762755e-21
-0.4900385509062497	-1.833026467133577e-21
-0.4899775157499997	-1.833132229426612e-21
-0.4899164805937497	-1.8332123266876455e-21
-0.4898554454374997	-1.8332666914562594e-21
-0.4897944102812497	-1.8332952675959796e-21
-0.4897333751249997	-1.8332980110362055e-21
-0.4896723399687497	-1.8332748901817423e-21
-0.4896113048124997	-1.833225885988225e-21
-0.4895502696562497	-1.8331509918105984e-21
-0.4894892344999997	-1.8330502130280282e-21
-0.4894281993437497	-1.8329235665282777e-21
-0.4893671641874997	-1.832771080014884e-21
-0.4893061290312497	-1.8325927909667238e-21
-0.4892450938749997	-1.832388745332051e-21
-0.4891840587187497	-1.8321589960595856e-21
-0.4891230235624997	-1.8319036014147462e-21
-0.4890619884062497	-1.8316226231417943e-21
-0.4890009532499997	-1.8313161246550276e-21
-0.4889399180937497	-1.830984169234603e-21
-0.4888788829374997	-1.830626818226874e-21
-0.4888178477812497	-1.8302441294780173e-21
-0.4887568126249997	-1.8298361558457698e-21
-0.4886957774687497	-1.8294029435178636e-21
-0.4886347423124997	-1.8289445304136623e-21
-0.4885737071562497	-1.8284609449712707e-21
-0.4885126719999997	-1.8279522052461683e-21
-0.4884516368437497	-1.827418318202576e-21
-0.4883906016874997	-1.8268592792433593e-21
-0.4883295665312497	-1.826275071960689e-21
-0.4882685313749997	-1.825665668018567e-21
-0.4882074962187497	-1.825031027333675e-21
-0.4881464610624997	-1.8243710986269704e-21
-0.4880854259062497	-1.823685820221961e-21
-0.4880243907499997	-1.8229751211536403e-21
-0.4879633555937497	-1.8222389225652287e-21
-0.4879023204374997	-1.821477139229219e-21
-0.4878412852812497	-1.8206896811339064e-21
-0.4877802501249997	-1.8198764552744344e-21
-0.4877192149687497	-1.819037367824878e-21
-0.4876581798124997	-1.8181723263677855e-21
-0.4875971446562497	-1.8172812417619384e-21
-0.4875361094999997	-1.8163640299681482e-21
-0.4874750743437497	-1.8154206142640628e-21
-0.4874140391874997	-1.81445092751801e-21
-0.4873530040312497	-1.813454914094719e-21
-0.4872919688749997	-1.812432531596778e-21
-0.4872309337187497	-1.81138375254292e-21
-0.4871698985624997	-1.8103085655459593e-21
-0.4871088634062497	-1.8092069760459926e-21
-0.4870478282499997	-1.808079007213767e-21
-0.4869867930937497	-1.806924700933766e-21
-0.4869257579374997	-1.805744118348832e-21
-0.4868647227812497	-1.804537339957359e-21
-0.4868036876249997	-1.8033044654447097e-21
-0.4867426524687497	-1.8020456132346824e-21
-0.4866816173124997	-1.8007609196053546e-21
-0.4866205821562497	-1.7994505372435838e-21
-0.4865595469999997	-1.7981146333764203e-21
-0.4864985118437497	-1.7967533877621166e-21
-0.4864374766874997	-1.7953669905981084e-21
-0.4863764415312497	-1.7939556402323e-21
-0.4863154063749997	-1.7925195406394115e-21
-0.4862543712187497	-1.791058898613058e-21
-0.4861933360624997	-1.789573920672914e-21
-0.4861323009062497	-1.7880648099641232e-21
-0.4860712657499997	-1.7865317633695793e-21
-0.4860102305937497	-1.7849749686856643e-21
-0.4859491954374997	-1.783394601690935e-21
-0.4858881602812497	-1.7817908232365198e-21
-0.4858271251249997	-1.7801637765430995e-21
-0.4857660899687497	-1.7785135845451445e-21
-0.4857050548124997	-1.776840347317964e-21
-0.4856440196562497	-1.775144140147464e-21
-0.4855829844999997	-1.7734250122584926e-21
-0.4855219493437497	-1.771682985596837e-21
-0.4854609141874997	-1.7699180537430855e-21
-0.4853998790312497	-1.7681301815027486e-21
-0.4853388438749997	-1.7663193050533125e-21
-0.4852778087187497	-1.7644853324548886e-21
-0.4852167735624997	-1.7626281445909422e-21
-0.4851557384062497	-1.7607475963933165e-21
-0.4850947032499997	-1.7588435184154896e-21
-0.4850336680937497	-1.7569157188537012e-21
-0.4849726329374997	-1.754963985882995e-21
-0.4849115977812497	-1.7529880904045644e-21
-0.4848505626249997	-1.7509877893621556e-21
-0.4847895274687497	-1.7489628293530365e-21
-0.4847284923124997	-1.746912950117489e-21
-0.4846674571562497	-1.7448378880140224e-21
-0.4846064219999997	-1.7427373798624628e-21
-0.4845453868437497	-1.740611167085671e-21
-0.4844843516874997	-1.7384589997929858e-21
-0.4844233165312497	-1.736280640637236e-21
-0.4843622813749997	-1.7340758684820363e-21
-0.4843012462187497	-1.731844482117334e-21
-0.4842402110624997	-1.7295863040011215e-21
-0.4841791759062497	-1.7273011836300197e-21
-0.4841181407499997	-1.7249890005794113e-21
-0.4840571055937497	-1.7226496672883988e-21
-0.4839960704374997	-1.7202831311910862e-21
-0.4839350352812497	-1.7178893762915653e-21
-0.4838740001249997	-1.7154684245948225e-21
-0.4838129649687497	-1.7130203371350704e-21
-0.4837519298124997	-1.7105452142957013e-21
-0.4836908946562497	-1.7080431954855813e-21
-0.4836298594999997	-1.705514458229153e-21
-0.4835688243437497	-1.7029592169588617e-21
-0.4835077891874997	-1.700377721571091e-21
-0.4834467540312497	-1.6977702552699548e-21
-0.4833857188749997	-1.6951371316253894e-21
-0.4833246837187497	-1.692478691120795e-21
-0.4832636485624997	-1.6897952973125503e-21
-0.4832026134062497	-1.6870873327484444e-21
-0.4831415782499997	-1.6843551948050243e-21
-0.4830805430937497	-1.681599291463508e-21
-0.4830195079374997	-1.6788200366865178e-21
-0.4829584727812497	-1.6760178451602266e-21
-0.4828974376249997	-1.6731931269902163e-21
-0.4828364024687497	-1.6703462827387445e-21
-0.4827753673124997	-1.6674776984481293e-21
-0.4827143321562497	-1.6645877406360021e-21
-0.4826532969999997	-1.661676751543481e-21
-0.4825922618437497	-1.6587450446595273e-21
-0.4825312266874997	-1.6557929004224295e-21
-0.4824701915312497	-1.6528205622435043e-21
-0.4824091563749997	-1.649828233237742e-21
-0.4823481212187497	-1.6468160736428286e-21
-0.4822870860624997	-1.6437841984044782e-21
-0.4822260509062497	-1.6407326750548457e-21
-0.4821650157499997	-1.6376615227590668e-21
-0.4821039805937497	-1.6345707124832298e-21
-0.4820429454374997	-1.6314601674797253e-21
-0.4819819102812497	-1.6283297638552548e-21
-0.4819208751249997	-1.6251793314959197e-21
-0.4818598399687497	-1.6220086558084499e-21
-0.4817988048124997	-1.6188174805024382e-21
-0.4817377696562497	-1.6156055110116021e-21
-0.4816767344999997	-1.6123724182763114e-21
-0.4816156993437497	-1.6091178432750082e-21
-0.4815546641874997	-1.60584140227409e-21
-0.4814936290312497	-1.6025426922301372e-21
-0.4814325938749997	-1.599221296366624e-21
-0.4813715587187497	-1.5958767900052882e-21
-0.4813105235624997	-1.5925087463267894e-21
-0.4812494884062497	-1.589116742113592e-21
-0.4811884532499997	-1.5857003637238893e-21
-0.4811274180937497	-1.5822592132286248e-21
-0.4810663829374997	-1.5787929145024772e-21
-0.4810053477812497	-1.5753011190492415e-21
-0.4809443126249997	-1.5717835112862977e-21
-0.4808832774687497	-1.5682398130321803e-21
-0.4808222423124997	-1.5646697874349207e-21
-0.4807612071562497	-1.56107324288335e-21
-0.4807001719999997	-1.5574500364311397e-21
-0.4806391368437497	-1.5538000760151223e-21
-0.4805781016874997	-1.5501233222039956e-21
-0.4805170665312497	-1.5464197899462372e-21
-0.4804560313749997	-1.5426895495374277e-21
-0.4803949962187497	-1.5389327264132118e-21
-0.4803339610624997	-1.5351494998933537e-21
-0.4802729259062497	-1.5313401013656245e-21
-0.4802118907499997	-1.5275048124779054e-21
-0.4801508555937497	-1.5236439629531017e-21
-0.4800898204374997	-1.5197579273733355e-21
-0.4800287852812497	-1.5158471210205231e-21
-0.4799677501249997	-1.5119119951358666e-21
-0.4799067149687497	-1.5079530319129411e-21
-0.4798456798124997	-1.5039707393661348e-21
-0.4797846446562497	-1.4999656456688254e-21
-0.4797236094999997	-1.4959382928044773e-21
-0.4796625743437497	-1.4918892301416236e-21
-0.4796015391874997	-1.4878190081687051e-21
-0.4795405040312497	-1.4837281722522356e-21
-0.4794794688749997	-1.4796172565320981e-21
-0.4794184337187497	-1.4754867776397177e-21
-0.4793573985624997	-1.471337228057225e-21
-0.4792963634062497	-1.4671690700684964e-21
-0.4792353282499997	-1.4629827308100546e-21
-0.4791742930937497	-1.4587785977154871e-21
-0.4791132579374997	-1.4545570141213585e-21
-0.4790522227812497	-1.4503182755982375e-21
-0.4789911876249997	-1.4460626272936557e-21
-0.4789301524687497	-1.4417902619773594e-21
-0.4788691173124997	-1.4375013182861875e-21
-0.4788080821562497	-1.4331958795072653e-21
-0.4787470469999997	-1.4288739738340198e-21
-0.4786860118437497	-1.4245355757399809e-21
-0.4786249766874997	-1.4201806073434913e-21
-0.4785639415312497	-1.415808939870392e-21
-0.4785029063749997	-1.4114203960799887e-21
-0.4784418712187497	-1.4070147537616004e-21
-0.4783808360624997	-1.4025917497912775e-21
-0.4783198009062497	-1.3981510844096716e-21
-0.4782587657499997	-1.3936924257246545e-21
-0.4781977305937497	-1.3892154148236076e-21
-0.4781366954374997	-1.3847196713308205e-21
-0.4780756602812497	-1.3802047986039309e-21
-0.4780146251249997	-1.3756703890840502e-21
-0.4779535899687497	-1.3711160307466369e-21
-0.4778925548124997	-1.366541313883638e-21
-0.4778315196562497	-1.3619458373464938e-21
-0.4777704844999997	-1.3573292144329916e-21
-0.4777094493437497	-1.3526910784565138e-21
-0.4776484141874997	-1.3480310880250602e-21
-0.4775873790312497	-1.3433489319901123e-21
-0.4775263438749997	-1.338644333587304e-21
-0.4774653087187497	-1.3339170541397169e-21
-0.4774042735624997	-1.3291668967378129e-21
-0.4773432384062497	-1.324393709046619e-21
-0.4772822032499997	-1.3195973849286225e-21
-0.4772211680937497	-1.3147778652648873e-21
-0.4771601329374997	-1.3099351381699496e-21
-0.4770990977812497	-1.30506923894658e-21
-0.4770380626249997	-1.300180249627961e-21
-0.4769770274687497	-1.2952682979118538e-21
-0.4769159923124997	-1.2903335555036922e-21
-0.4768549571562497	-1.2853762355274522e-21
-0.4767939219999997	-1.280396589457258e-21
-0.4767328868437497	-1.2753949040101591e-21
-0.4766718516874997	-1.2703714973534126e-21
-0.4766108165312497	-1.2653267145169038e-21
-0.4765497813749997	-1.2602609223372255e-21
-0.4764887462187497	-1.2551745038969794e-21
-0.4764277110624997	-1.2500678527441215e-21
-0.4763666759062497	-1.2449413673463045e-21
-0.4763056407499997	-1.2397954457325755e-21
-0.4762446055937497	-1.234630479801747e-21
-0.4761835704374997	-1.2294468494627311e-21
-0.4761225352812497	-1.2242449176138344e-21
-0.4760615001249997	-1.219025025880273e-21
-0.4760004649687497	-1.2137874907104301e-21
-0.4759394298124997	-1.2085326001755606e-21
-0.4758783946562497	-1.2032606110710017e-21
-0.4758173594999997	-1.1979717463079498e-21
-0.4757563243437497	-1.1926661934360838e-21
-0.4756952891874997	-1.1873441041119214e-21
-0.4756342540312497	-1.1820055932762429e-21
-0.4755732188749997	-1.1766507389622169e-21
-0.4755121837187497	-1.1712795901636704e-21
-0.4754511485624997	-1.1658921873634351e-21
-0.4753901134062497	-1.1604885858931542e-21
-0.4753290782499997	-1.1550688712318545e-21
-0.4752680430937497	-1.1496331664502499e-21
-0.4752070079374997	-1.1441816346956123e-21
-0.4751459727812497	-1.138714477665285e-21
-0.4750849376249997	-1.1332319315344564e-21
-0.4750239024687497	-1.1277342617839028e-21
-0.4749628673124997	-1.122221757130218e-21
-0.4749018321562497	-1.1166947225876354e-21
-0.4748407969999997	-1.1111534719999634e-21
-0.4747797618437497	-1.1055983196811545e-21
-0.4747187266874997	-1.1000295714787102e-21
-0.4746576915312497	-1.0944475164244318e-21
-0.4745966563749997	-1.0888524189489465e-21
-0.4745356212187497	-1.0832445113469894e-21
-0.4744745860624997	-1.0776239870287146e-21
-0.4744135509062497	-1.071990994665934e-21
-0.4743525157499997	-1.0663456327740288e-21
-0.4742914805937497	-1.0606879448533176e-21
-0.4742304454374997	-1.0550179157347865e-21
-0.4741694102812497	-1.0493354697099815e-21
-0.4741083751249997	-1.0436404701514873e-21
-0.4740473399687497	-1.0379327198077265e-21
-0.4739863048124997	-1.0322119617343874e-21
-0.4739252696562497	-1.0264778812426125e-21
-0.4738642344999997	-1.0207301093297367e-21
-0.4738031993437497	-1.0149682275982931e-21
-0.4737421641874997	-1.009191773781921e-21
-0.4736811290312497	-1.0034002476988885e-21
-0.4736200938749997	-9.975931182448573e-22
-0.4735590587187497	-9.917698315777937e-22
-0.4734980235624997	-9.859298202626661e-22
-0.4734369884062497	-9.80072512975842e-22
-0.4733759532499997	-9.741973442857172e-22
-0.4733149180937497	-9.68303764101665e-22
-0.4732538829374997	-9.623912469169342e-22
-0.4731928477812497	-9.564593011235357e-22
-0.4731318126249997	-9.505074778937552e-22
-0.4730707774687497	-9.445353796802071e-22
-0.4730097423124997	-9.385426688483428e-22
-0.4729487071562497	-9.32529075481184e-22
-0.4728876719999997	-9.264944036045344e-22
-0.4728266368437497	-9.204385365859541e-22
-0.4727656016874997	-9.14361441900004e-22
-0.4727045665312497	-9.08263174372567e-22
-0.4726435313749997	-9.021438779029142e-22
-0.4725824962187497	-8.960037863957145e-22
-0.4725214610624997	-8.898432234890896e-22
-0.4724604259062497	-8.836626008758858e-22
-0.4723993907499997	-8.774624157457943e-22
-0.4723383555937497	-8.712432466852694e-22
-0.4722773204374997	-8.650057475272733e-22
-0.4722162852812497	-8.58750640128075e-22
