Time	Frequency
-0.5000305098749998	-0.788071113338098
-0.49996947471874975	-0.7880765993563454
-0.49990843956249975	-0.7880708867467869
-0.49984740440624975	-0.7880539603745449
-0.49978636924999975	-0.7880258022835908
-0.49972533409374975	-0.7879863931260339
-0.49966429893749975	-0.7879357135031759
-0.49960326378124975	-0.7878737451966855
-0.49954222862499975	-0.7878004727038829
-0.49948119346874975	-0.7877158849114082
-0.49942015831249975	-0.7876199759532321
-0.49935912315624975	-0.7875127450609083
-0.49929808799999975	-0.7873941961416252
-0.49923705284374975	-0.7872643371425153
-0.49917601768749975	-0.7871231789301456
-0.49911498253124975	-0.7869707341890075
-0.49905394737499975	-0.7868070163453058
-0.49899291221874975	-0.7866320379606233
-0.49893187706249975	-0.7864458091541966
-0.49887084190624975	-0.7862483366949805
-0.49880980674999975	-0.7860396234091466
-0.49874877159374975	-0.7858196678289959
-0.49868773643749975	-0.7855884644277819
-0.49862670128124975	-0.7853460043302392
-0.49856566612499975	-0.785092276281596
-0.49850463096874975	-0.784827267987231
-0.49844359581249975	-0.7845509678423109
-0.49838256065624975	-0.7842633667139514
-0.49832152549999975	-0.7839644590901133
-0.49826049034374975	-0.7836542432419036
-0.49819945518749975	-0.7833327212119834
-0.49813842003124975	-0.7829998991815057
-0.49807738487499975	-0.782655787316012
-0.49801634971874975	-0.7823003986470721
-0.49795531456249975	-0.7819337477758382
-0.49789427940624975	-0.7815558497230469
-0.49783324424999975	-0.7811667187523595
-0.49777220909374975	-0.7807663672401789
-0.49771117393749975	-0.78035480454918
-0.49765013878124975	-0.7799320359545135
-0.49758910362499975	-0.7794980619606598
-0.49752806846874975	-0.779052878224376
-0.49746703331249975	-0.778596476071381
-0.49740599815624975	-0.7781288434216961
-0.49734496299999975	-0.7776499659053684
-0.49728392784374975	-0.7771598283083714
-0.49722289268749975	-0.7766584165495802
-0.49716185753124975	-0.7761457195889753
-0.49710082237499975	-0.7756217305596671
-0.49703978721874975	-0.7750864474332235
-0.49697875206249975	-0.7745398738334759
-0.49691771690624975	-0.7739820196487153
-0.49685668174999975	-0.773412900657113
-0.49679564659374975	-0.7728325375209028
-0.49673461143749975	-0.772240954913733
-0.49667357628124975	-0.7716381802548901
-0.49661254112499975	-0.7710242414309539
-0.49655150596874975	-0.7703991644144598
-0.49649047081249975	-0.7697629716731113
-0.49642943565624975	-0.7691156808747269
-0.49636840049999975	-0.7684573036807717
-0.49630736534374975	-0.7677878453695405
-0.49624633018749975	-0.7671073053445391
-0.49618529503124975	-0.7664156779088371
-0.49612425987499975	-0.76571295296476
-0.49606322471874975	-0.7649991170497533
-0.49600218956249975	-0.764274155344085
-0.49594115440624975	-0.7635380538070446
-0.49588011924999975	-0.7627908005979905
-0.49581908409374975	-0.762032387535304
-0.49575804893749975	-0.7612628116141108
-0.49569701378124975	-0.7604820756156409
-0.49563597862499975	-0.7596901879501056
-0.49557494346874975	-0.758887162484523
-0.49551390831249975	-0.7580730182592927
-0.49545287315624975	-0.7572477786698839
-0.49539183799999975	-0.7564114701902585
-0.49533080284374975	-0.7555641208646259
-0.49526976768749975	-0.7547057585938586
-0.49520873253124975	-0.7538364094503585
-0.49514769737499975	-0.7529560961866227
-0.49508666221874975	-0.7520648368407414
-0.49502562706249975	-0.7511626437071443
-0.49496459190624975	-0.750249523022678
-0.49490355674999975	-0.7493254757845177
-0.49484252159374975	-0.7483904993891702
-0.49478148643749975	-0.7474445890982124
-0.49472045128124975	-0.7464877394440264
-0.49465941612499975	-0.7455199456490958
-0.49459838096874975	-0.7445412047815844
-0.49453734581249975	-0.7435515167554954
-0.49447631065624975	-0.7425508851444549
-0.49441527549999975	-0.741539318105946
-0.49435424034374975	-0.7405168289839793
-0.49429320518749975	-0.7394834358296373
-0.49423217003124975	-0.7384391604466153
-0.49417113487499975	-0.7373840274120503
-0.49411009971874975	-0.7363180628950339
-0.49404906456249975	-0.7352412930443879
-0.49398802940624975	-0.7341537421488675
-0.49392699424999975	-0.7330554315264447
-0.49386595909374975	-0.7319463789212827
-0.49380492393749975	-0.7308265976800844
-0.49374388878124975	-0.7296960966099737
-0.49368285362499975	-0.7285548811479295
-0.49362181846874975	-0.7274029550616593
-0.49356078331249975	-0.7262403219963077
-0.49349974815624975	-0.7250669865696214
-0.49343871299999975	-0.7238829551057585
-0.49337767784374975	-0.7226882367294106
-0.49331664268749975	-0.7214828448181139
-0.49325560753124975	-0.7202667976740283
-0.49319457237499975	-0.7190401180795021
-0.49313353721874975	-0.7178028323602796
-0.49307250206249975	-0.7165549688880053
-0.49301146690624975	-0.7152965559290116
-0.49295043174999975	-0.7140276199585799
-0.49288939659374975	-0.7127481851784718
-0.49282836143749975	-0.7114582732096453
-0.49276732628124975	-0.7101579019850017
-0.49270629112499975	-0.7088470847394235
-0.49264525596874975	-0.7075258297737633
-0.49258422081249975	-0.7061941406576884
-0.49252318565624975	-0.7048520178354836
-0.49246215049999975	-0.7034994615961221
-0.49240111534374975	-0.7021364742029395
-0.49234008018749975	-0.7007630606179298
-0.49227904503124975	-0.6993792290702511
-0.49221800987499975	-0.6979849924424636
-0.49215697471874975	-0.6965803698205061
-0.49209593956249975	-0.6951653866361516
-0.49203490440624975	-0.6937400736249949
-0.49197386924999975	-0.6923044656197872
-0.49191283409374975	-0.6908586000416993
-0.49185179893749975	-0.6894025147227235
-0.49179076378124975	-0.6879362452023088
-0.49172972862499975	-0.6864598222677125
-0.49166869346874975	-0.6849732705124274
-0.49160765831249975	-0.6834766078639215
-0.49154662315624975	-0.6819698455415757
-0.49148558799999975	-0.6804529882995539
-0.49142455284374975	-0.6789260353900999
-0.49136351768749975	-0.6773889822092837
-0.49130248253124975	-0.6758418221635856
-0.49124144737499975	-0.6742845488579572
-0.49118041221874975	-0.6727171588250315
-0.49111937706249975	-0.6711396541519692
-0.49105834190624975	-0.6695520442664953
-0.49099730674999975	-0.6679543473452085
-0.49093627159374975	-0.666346591289929
-0.49087523643749975	-0.664728812994227
-0.49081420128124975	-0.6631010561584988
-0.49075316612499975	-0.6614633689955848
-0.49069213096874975	-0.6598158017291521
-0.49063109581249975	-0.658158403189984
-0.49057006065624975	-0.6564912169240639
-0.49050902549999975	-0.6548142785276999
-0.49044799034374975	-0.6531276149911874
-0.49038695518749975	-0.6514312443666092
-0.49032592003124975	-0.6497251749876164
-0.49026488487499975	-0.6480094057960584
-0.49020384971874975	-0.6462839285039652
-0.49014281456249975	-0.6445487306684318
-0.49008177940624975	-0.6428037990803773
-0.49002074424999975	-0.6410491234865254
-0.48995970909374975	-0.6392847000251878
-0.48989867393749975	-0.637510533910377
-0.48983763878124975	-0.6357266416125538
-0.48977660362499975	-0.6339330516760274
-0.48971556846874975	-0.6321298037132378
-0.48965453331249975	-0.6303169471302393
-0.48959349815624975	-0.6284945395189734
-0.48953246299999975	-0.6266626439602596
-0.48947142784374975	-0.6248213260999824
-0.48941039268749975	-0.6229706508234227
-0.48934935753124975	-0.6211106781962469
-0.48928832237499975	-0.6192414594881339
-0.48922728721874975	-0.6173630343163216
-0.48916625206249975	-0.6154754295822998
-0.48910521690624975	-0.6135786595145971
-0.48904418174999975	-0.6116727263612972
-0.48898314659374975	-0.6097576225169182
-0.48892211143749975	-0.6078333337779734
-0.48886107628124975	-0.6058998425206273
-0.48880004112499975	-0.6039571308197509
-0.48873900596874975	-0.6020051843842216
-0.48867797081249975	-0.600043997390048
-0.48861693565624975	-0.5980735764742323
-0.48855590049999975	-0.5960939421622948
-0.48849486534374975	-0.5941051287079077
-0.48843383018749975	-0.59210718347337
-0.48837279503124975	-0.5901001651964015
-0.48831175987499975	-0.5880841414155814
-0.48825072471874975	-0.5860591850370127
-0.48818968956249975	-0.5840253695090374
-0.48812865440624975	-0.5819827644294706
-0.48806761924999975	-0.5799314322050035
-0.48800658409374975	-0.5778714241778664
-0.48794554893749975	-0.5758027772257187
-0.48788451378124975	-0.5737255130273213
-0.48782347862499975	-0.5716396394250548
-0.48776244346874975	-0.5695451519691725
-0.48770140831249975	-0.5674420358507201
-0.48764037315624975	-0.5653302698510924
-0.48757933799999975	-0.5632098319154566
-0.48751830284374975	-0.5610807045609943
-0.48745726768749975	-0.5589428791746375
-0.48739623253124975	-0.5567963588783025
-0.48733519737499975	-0.5546411606320246
-0.48727416221874975	-0.5524773172121561
-0.48721312706249975	-0.5503048776922629
-0.48715209190624975	-0.548123906004207
-0.48709105674999975	-0.545934478720878
-0.48703002159374975	-0.5437366812282539
-0.48696898643749975	-0.5415306017493519
-0.48690795128124975	-0.5393163250802505
-0.48684691612499975	-0.5370939274670716
-0.48678588096874975	-0.5348634726104218
-0.48672484581249975	-0.5326250085943494
-0.48666381065624975	-0.5303785658896297
-0.48660277549999975	-0.5281241568137253
-0.48654174034374975	-0.5258617770036285
-0.48648070518749975	-0.5235914088005893
-0.48641967003124975	-0.5213130258426925
-0.48635863487499975	-0.51902659844525
-0.48629759971874975	-0.5167320991455436
-0.48623656456249975	-0.5144295079374673
-0.48617552940624975	-0.512118817552138
-0.48611449424999975	-0.5098000381571698
-0.48605345909374975	-0.5074731999135093
-0.48599242393749975	-0.5051383536326014
-0.48593138878124975	-0.5027955699293101
-0.48587035362499975	-0.5004449360007139
-0.48580931846874975	-0.4980865506585189
-0.48574828331249975	-0.4957205184864045
-0.48568724815624975	-0.4933469429103173
-0.48562621299999975	-0.4909659193152871
-0.48556517784374975	-0.48857752936858584
-0.48550414268749975	-0.48618183647113045
-0.48544310753124975	-0.48377888267844904
-0.48538207237499975	-0.4813686875086933
-0.48532103721874975	-0.47895124906768943
-0.48526000206249975	-0.4765265476988296
-0.48519896690624975	-0.4740945514266813
-0.48513793174999975	-0.47165522255556963
-0.48507689659374975	-0.46920852475913255
-0.48501586143749975	-0.4667544300962694
-0.48495482628124975	-0.4642929257757051
-0.48489379112499975	-0.46182401974077314
-0.48483275596874975	-0.4593477438137454
-0.48477172081249975	-0.4568641537981997
-0.48471068565624975	-0.4543733270305909
-0.48464965049999975	-0.45187535846347315
-0.48458861534374975	-0.4493703554138798
-0.48452758018749975	-0.4468584305443172
-0.48446654503124975	-0.44433969393983197
-0.48440550987499975	-0.4418142455676933
-0.48434447471874975	-0.43928216831419464
-0.48428343956249975	-0.436743522563182
-0.48422240440624975	-0.43419834362355275
-0.48416136924999975	-0.431646641249505
-0.48410033409374975	-0.4290884010141423
-0.48403929893749975	-0.42652358887230274
-0.48397826378124975	-0.4239521583584315
-0.48391722862499975	-0.42137405876516065
-0.48385619346874975	-0.41878924373177423
-0.48379515831249975	-0.4161976794214042
-0.48373412315624975	-0.4135993512273043
-0.48367308799999975	-0.41099426881787154
-0.48361205284374975	-0.4083824695071872
-0.48355101768749975	-0.4057640192526647
-0.48348998253124975	-0.4031390102958203
-0.48342894737499975	-0.40050755514075864
-0.48336791221874975	-0.39786977821156727
-0.48330687706249975	-0.39522580713504224
-0.48324584190624975	-0.3925757639229117
-0.48318480674999975	-0.3899197562049364
-0.48312377159374975	-0.3872578696714519
-0.48306273643749975	-0.3845901623492797
-0.48300170128124975	-0.3819166615115276
-0.48294066612499975	-0.3792373638213535
-0.48287963096874975	-0.37655223888054995
-0.48281859581249975	-0.3738612362627012
-0.48275756065624975	-0.37116429453577593
-0.48269652549999975	-0.36846135097484134
-0.48263549034374975	-0.36575235124596445
-0.48257445518749975	-0.36303725821189703
-0.48251342003124975	-0.36031606018137385
-0.48245238487499975	-0.3575887773628059
-0.48239134971874975	-0.35485546415391467
-0.48233031456249975	-0.3521162075279761
-0.48226927940624975	-0.349371122464992
-0.48220824424999975	-0.34662034424215005
-0.48214720909374975	-0.34386401794613175
-0.48208617393749975	-0.3411022870428258
-0.48202513878124975	-0.3383352827902994
-0.48196410362499975	-0.33556311487242807
-0.48190306846874975	-0.3327858636794356
-0.48184203331249975	-0.3300035753776913
-0.48178099815624975	-0.3272162603285837
-0.48171996299999975	-0.3244238950476132
-0.48165892784374975	-0.32162642775123523
-0.48159789268749975	-0.3188237870971937
-0.48153685753124975	-0.3160158935566418
-0.48147582237499975	-0.3132026717264628
-0.48141478721874975	-0.3103840617139072
-0.48135375206249975	-0.3075600295441892
-0.48129271690624975	-0.30473057612083254
-0.48123168174999975	-0.3018957425195146
-0.48117064659374975	-0.2990556102790101
-0.48110961143749975	-0.29621029711918634
-0.48104857628124975	-0.2933599490920408
-0.48098754112499975	-0.29050473027879686
-0.48092650596874975	-0.2876448105480111
-0.48086547081249975	-0.28478035188954004
-0.48080443565624975	-0.28191149463679227
-0.48074340049999975	-0.27903834518597603
-0.48068236534374975	-0.2761609679555248
-0.48062133018749975	-0.2732793831187627
-0.48056029503124975	-0.2703935684772895
-0.48049925987499975	-0.2675034649570366
-0.48043822471874975	-0.2646089863074521
-0.48037718956249975	-0.261710031726339
-0.48031615440624975	-0.25880650032257024
-0.48025511924999975	-0.2558983069943877
-0.48019408409374975	-0.25298539731046205
-0.48013304893749975	-0.25006775799507713
-0.48007201378124975	-0.24714542234306808
-0.48001097862499975	-0.24421847171563035
-0.47994994346874975	-0.24128703268892263
-0.47988890831249975	-0.23835126898359746
-0.47982787315624975	-0.2354113694436542
-0.47976683799999975	-0.2324675338482439
-0.47970580284374975	-0.22951995677673073
-0.47964476768749975	-0.22656881073673368
-0.47958373253124975	-0.22361423184395587
-0.47952269737499975	-0.22065630982696202
-0.47946166221874975	-0.21769508214178238
-0.47940062706249975	-0.21473053296048722
-0.47933959190624975	-0.21176259850699733
-0.47927855674999975	-0.2087911779993985
-0.47921752159374975	-0.20581614772701518
-0.47915648643749975	-0.20283737707845706
-0.47909545128124975	-0.1998547456126145
-0.47903441612499975	-0.196868159114187
-0.47897338096874975	-0.19387756325534977
-0.47891234581249975	-0.19088295376235287
-0.47885131065624975	-0.18788438133489796
-0.47879027549999975	-0.1848819509009515
-0.47872924034374975	-0.181875816162963
-0.47866820518749975	-0.17886616962095664
-0.47860717003124975	-0.1758532282190208
-0.47854613487499975	-0.17283721625069629
-0.47848509971874975	-0.1698183477337911
-0.47842406456249975	-0.16679681012020636
-0.47836302940624975	-0.16377275078254555
-0.47830199424999975	-0.16074626734353553
-0.47824095909374975	-0.15771740267159298
-0.47817992393749975	-0.15468614474512052
-0.47811888878124975	-0.1516524312512648
-0.47805785362499975	-0.14861615909334644
-0.47799681846874975	-0.14557719881145678
-0.47793578331249975	-0.1425354121782043
-0.47787474815624975	-0.13949066945100716
-0.47781371299999975	-0.13644286480140216
-0.47775267784374975	-0.1333919306221862
-0.47769164268749975	-0.130337849364131
-0.47763060753124975	-0.1272806602233626
-0.47756957237499975	-0.12422045970704636
-0.47750853721874975	-0.12115739680881751
-0.47744750206249975	-0.11809166380714274
-0.47738646690624975	-0.11502348321903656
-0.47732543174999975	-0.11195309150467327
-0.47726439659374975	-0.10888072114211537
-0.47720336143749975	-0.10580658320114326
-0.47714232628124975	-0.10273085160961566
-0.47708129112499975	-0.09965365002482084
-0.47702025596874975	-0.09657504337969604
-0.47695922081249975	-0.09349503577562435
-0.47689818565624975	-0.09041357436153874
-0.47683715049999975	-0.08733055793576819
-0.47677611534374975	-0.08424584920713868
-0.47671508018749975	-0.08115929043466565
-0.47665404503124975	-0.07807072191057156
-0.47659300987499975	-0.0749800011333921
-0.47653197471874975	-0.07188702084185251
-0.47647093956249975	-0.06879172459749698
-0.47640990440624975	-0.06569411765466503
-0.47634886924999975	-0.06259427136230275
-0.47628783409374975	-0.05949232112368294
-0.47622679893749975	-0.05638845914716813
-0.47616576378124975	-0.05328292235887156
-0.47610472862499975	-0.050175975383518805
-0.47604369346874975	-0.04706789032043368
-0.47598265831249975	-0.04395892564085659
-0.47592162315624975	-0.04084930620857427
-0.47586058799999975	-0.03773920582636653
-0.47579955284374975	-0.0346287336463169
-0.47573851768749975	-0.03151792714517194
-0.47567748253124975	-0.028406752537356743
-0.47561644737499975	-0.025295110967221923
-0.47555541221874975	-0.02218285044930647
-0.47549437706249975	-0.01906978373325962
-0.47543334190624975	-0.015955709666846663
-0.47537230674999975	-0.012840435902172855
-0.47531127159374975	-0.009723801693456706
-0.47525023643749975	-0.006605697729254317
-0.47518920128124975	-0.003486079825168727
-0.47512816612499975	-0.0003649757269570217
-0.47506713096874975	0.0027575144012396465
-0.47500609581249975	0.005881224044448166
-0.47494506065624975	0.00900593399188265
-0.47488402549999975	0.01213139273246577
-0.47482299034374975	0.015257340290780104
-0.47476195518749975	0.01838353232888282
-0.47470092003124975	0.02150976274693251
-0.47463988487499975	0.0246358820083635
-0.47457884971874975	0.027761804525609807
-0.47451781456249975	0.030887497282181795
-0.47445677940624975	0.0340129501587562
-0.47439574424999975	0.037138143494007105
-0.47433470909374975	0.04026303125397006
-0.47427367393749975	0.043387542436947375
-0.47421263878124975	0.046511591985782856
-0.47415160362499975	0.0496350946946252
-0.47409056846874975	0.052757978693263215
-0.47402953331249975	0.05588019590823237
-0.47396849815624975	0.05900172873187817
-0.47390746299999975	0.062122593202785396
-0.47384642784374975	0.06524283800628228
-0.47378539268749975	0.06836253873425265
-0.47372435753124975	0.07148178892674514
-0.47366332237499975	0.07460068956837161
-0.47360228721874975	0.07771933719092053
-0.47354125206249975	0.08083781152788855
-0.47348021690624975	0.08395616494688199
-0.47341918174999975	0.08707441530349073
-0.47335814659374975	0.09019254296692776
-0.47329711143749975	0.09331049107189499
-0.47323607628124975	0.09642816809970996
-0.47317504112499975	0.0995454539525374
-0.47311400596874975	0.10266220885120368
-0.47305297081249975	0.10577828285741407
-0.47299193565624975	0.10889352583511003
-0.47293090049999975	0.11200779753054049
-0.47286986534374975	0.11512097646917137
-0.47280883018749975	0.1182329662381476
-0.47274779503124975	0.12134369843532836
-0.47268675987499975	0.12445313298059646
-0.47262572471874975	0.12756125605818575
-0.47256468956249975	0.13066807581586434
-0.47250365440624975	0.13377361630030477
-0.47244261924999975	0.1368779100466993
-0.47238158409374975	0.13998099023022353
-0.47232054893749975	0.1430828827327228
-0.47225951378124975	0.14618359871144102
-0.47219847862499975	0.14928312950318937
-0.47213744346874975	0.15238144422200045
-0.47207640831249975	0.15547848877671608
-0.47201537315624975	0.1585741864258434
-0.47195433799999975	0.16166844074684183
-0.47189330284374975	0.16476114084278348
-0.47183226768749975	0.1678521682746629
-0.47177123253124975	0.1709414044895374
-0.47171019737499975	0.17402873700936597
-0.47164916221874975	0.17711406453971842
-0.47158812706249975	0.18019730198204834
-0.47152709190624975	0.1832783840716534
-0.47146605674999975	0.18635726615178866
-0.47140502159374975	0.18943392300707257
-0.47134398643749975	0.1925083461948708
-0.47128295128124975	0.19558053958491609
-0.47122191612499975	0.198650514304203
-0.47116088096874975	0.20171828308872872
-0.47109984581249975	0.20478385327333037
-0.47103881065624975	0.20784722027428557
-0.47097777549999975	0.2109083632549014
-0.47091674034374975	0.21396724242508164
-0.47085570518749975	0.21702379746505937
-0.47079467003124975	0.22007794730520105
-0.47073363487499975	0.22312959187572057
-0.47067259971874975	0.22617861620535273
-0.47061156456249975	0.2292248961945885
-0.47055052940624975	0.23226830495103337
-0.47048949424999975	0.23530871929176128
