Time	Frequency
-0.5000152514062499	8.763596175595022e-22
-0.4999542162499999	8.74217798580017e-22
-0.4998931810937499	8.720602379271436e-22
-0.4998321459374999	8.698869779278615e-22
-0.4997711107812499	8.676980547537078e-22
-0.4997100756249999	8.654934986392781e-22
-0.4996490404687499	8.632733334671858e-22
-0.4995880053124999	8.610375767496126e-22
-0.4995269701562499	8.58786243865121e-22
-0.4994659349999999	8.565193542995887e-22
-0.4994048998437499	8.542369355007439e-22
-0.4993438646874999	8.519390241442342e-22
-0.4992828295312499	8.496256675335815e-22
-0.4992217943749999	8.47296924920345e-22
-0.4991607592187499	8.449528643524801e-22
-0.4990997240624999	8.42593554697625e-22
-0.4990386889062499	8.402190571896627e-22
-0.4989776537499999	8.378294207287517e-22
-0.4989166185937499	8.354246804249034e-22
-0.4988555834374999	8.330048563493912e-22
-0.4987945482812499	8.305699546193884e-22
-0.4987335131249999	8.281199725800222e-22
-0.4986724779687499	8.25654906097682e-22
-0.4986114428124999	8.231747554943019e-22
-0.4985504076562499	8.206795302381989e-22
-0.4984893724999999	8.18169257571157e-22
-0.4984283373437499	8.156439892577711e-22
-0.4983673021874999	8.131037983357824e-22
-0.4983062670312499	8.105487721209691e-22
-0.4982452318749999	8.079790046440486e-22
-0.4981841967187499	8.053945862810557e-22
-0.4981231615624999	8.027955939879215e-22
-0.4980621264062499	8.001820831181454e-22
-0.4980010912499999	7.975540821281236e-22
-0.4979400560937499	7.949115965170972e-22
-0.4978790209374999	7.922546206475466e-22
-0.4978179857812499	7.895831495522238e-22
-0.4977569506249999	7.868971873010704e-22
-0.4976959154687499	7.841967518781835e-22
-0.4976348803124999	7.814818782316931e-22
-0.4975738451562499	7.787526207673933e-22
-0.4975128099999999	7.760090529014539e-22
-0.4974517748437499	7.732512620113882e-22
-0.4973907396874999	7.704793402973723e-22
-0.4973297045312499	7.676933746656931e-22
-0.4972686693749999	7.648934404462946e-22
-0.4972076342187499	7.620795969699981e-22
-0.4971465990624999	7.592518821022631e-22
-0.4970855639062499	7.564103116968278e-22
-0.4970245287499999	7.535548876231177e-22
-0.4969634935937499	7.5068560939924095e-22
-0.4969024584374999	7.478024847289854e-22
-0.4968414232812499	7.449055362028439e-22
-0.4967803881249999	7.419948041285934e-22
-0.4967193529687499	7.390703476742141e-22
-0.4966583178124999	7.361322438590094e-22
-0.4965972826562499	7.331805834658753e-22
-0.4965362474999999	7.302154620083976e-22
-0.4964752123437499	7.272369661035528e-22
-0.4964141771874999	7.242451635530718e-22
-0.4963531420312499	7.212401040396667e-22
-0.4962921068749999	7.182218248767866e-22
-0.4962310717187499	7.151903523354268e-22
-0.4961700365624999	7.121457024374996e-22
-0.4961090014062499	7.090878890394772e-22
-0.4960479662499999	7.060169343367321e-22
-0.4959869310937499	7.029328748323673e-22
-0.4959258959374999	6.998357629281777e-22
-0.4958648607812499	6.967256651045379e-22
-0.4958038256249999	6.936026580891399e-22
-0.4957427904687499	6.90466824116234e-22
-0.4956817553124999	6.87318244035962e-22
-0.4956207201562499	6.841569931713308e-22
-0.4955596849999999	6.809831398828572e-22
-0.4954986498437499	6.777967396471532e-22
-0.4954376146874999	6.74597832785155e-22
-0.4953765795312499	6.713864505051729e-22
-0.4953155443749999	6.681626219794981e-22
-0.4952545092187499	6.649263836037749e-22
-0.4951934740624999	6.616777876970076e-22
-0.4951324389062499	6.584169023609383e-22
-0.4950714037499999	6.551438047589954e-22
-0.4950103685937499	6.518585748067355e-22
-0.4949493334374999	6.4856128983866605e-22
-0.4948882982812499	6.452520186834373e-22
-0.4948272631249999	6.419308174653441e-22
-0.4947662279687499	6.38597728731118e-22
-0.4947051928124999	6.352527848138387e-22
-0.4946441576562499	6.318960145715652e-22
-0.4945831224999999	6.285274478531002e-22
-0.4945220873437499	6.251471177351723e-22
-0.4944610521874999	6.217550664135622e-22
-0.4944000170312499	6.183513502984832e-22
-0.4943389818749999	6.149360364016835e-22
-0.4942779467187499	6.115091963510725e-22
-0.4942169115624999	6.080709060590417e-22
-0.4941558764062499	6.046212468859372e-22
-0.4940948412499999	6.011603020711201e-22
-0.4940338060937499	5.976881492146418e-22
-0.4939727709374999	5.942048559896989e-22
-0.4939117357812499	5.907104810158105e-22
-0.4938507006249999	5.8720507345474265e-22
-0.4937896654687499	5.836886742966268e-22
-0.4937286303124999	5.80161323254398e-22
-0.4936675951562499	5.766230625781849e-22
-0.4936065599999999	5.730739371730339e-22
-0.4935455248437499	5.695139976022626e-22
-0.4934844896874999	5.659433027451954e-22
-0.4934234545312499	5.62361918881323e-22
-0.4933624193749999	5.587699182697518e-22
-0.4933013842187499	5.551673774153718e-22
-0.4932403490624999	5.515543730079273e-22
-0.4931793139062499	5.479309776339011e-22
-0.4931182787499999	5.442972585466455e-22
-0.4930572435937499	5.406532799411e-22
-0.4929962084374999	5.369991052917689e-22
-0.4929351732812499	5.333347957809839e-22
-0.4928741381249999	5.296604073850539e-22
-0.4928131029687499	5.259759919940967e-22
-0.4927520678124999	5.222816016433862e-22
-0.4926910326562499	5.185772907551157e-22
-0.4926299974999999	5.148631155974056e-22
-0.4925689623437499	5.111391335463812e-22
-0.4925079271874999	5.07405403281964e-22
-0.4924468920312499	5.036619881271322e-22
-0.4923858568749999	4.999089604215142e-22
-0.4923248217187499	4.961464002482684e-22
-0.4922637865624999	4.923743914297749e-22
-0.4922027514062499	4.885930180780737e-22
-0.4921417162499999	4.848023584010753e-22
-0.4920806810937499	4.810024817657645e-22
-0.4920196459374999	4.771934515202349e-22
-0.4919586107812499	4.733753230060051e-22
-0.4918975756249999	4.695481387306421e-22
-0.4918365404687499	4.657119323541754e-22
-0.4917755053124999	4.618667393300773e-22
-0.4917144701562499	4.580126040347095e-22
-0.4916534349999999	4.54149582984319e-22
-0.4915923998437499	4.5027774844314705e-22
-0.4915313646874999	4.463971884864803e-22
-0.4914703295312499	4.425080027979461e-22
-0.4914092943749999	4.386102989488832e-22
-0.4913482592187499	4.347041855335088e-22
-0.4912872240624999	4.307897594591317e-22
-0.4912261889062499	4.268670973143563e-22
-0.4911651537499999	4.229362574596336e-22
-0.4911041185937499	4.189972835995046e-22
-0.4910430834374999	4.1505020501873834e-22
-0.4909820482812499	4.110950430989422e-22
-0.4909210131249999	4.0713182594353815e-22
-0.4908599779687499	4.031605988727313e-22
-0.4907989428124999	3.99181426516826e-22
-0.4907379076562499	3.9519439437514416e-22
-0.4906768724999999	3.9119960999885e-22
-0.4906158373437499	3.8719719677262235e-22
-0.4905548021874999	3.831872795484802e-22
-0.4904937670312499	3.7916996731307924e-22
-0.4904327318749999	3.751453400451815e-22
-0.4903716967187499	3.7111344378904133e-22
-0.4903106615624999	3.670742951526507e-22
-0.4902496264062499	3.6302789497723156e-22
-0.4901885912499999	3.5897424536690307e-22
-0.4901275560937499	3.5491336724414257e-22
-0.4900665209374999	3.50845315182795e-22
-0.4900054857812499	3.467701807989805e-22
-0.4899444506249999	3.426880873191347e-22
-0.4898834154687499	3.3859918080927273e-22
-0.4898223803124999	3.3450361517301373e-22
-0.4897613451562499	3.304015317040682e-22
-0.4897003099999999	3.262930387648041e-22
-0.4896392748437499	3.221781991321847e-22
-0.4895782396874999	3.1805703044095996e-22
-0.4895172045312499	3.139295171474346e-22
-0.4894561693749999	3.0979563107411715e-22
-0.4893951342187499	3.056553575984515e-22
-0.4893340990624999	3.0150872122667443e-22
-0.4892730639062499	2.973557993769948e-22
-0.4892120287499999	2.9319671692580365e-22
-0.4891509935937499	2.890316286181783e-22
-0.4890899584374999	2.848606975926986e-22
-0.4890289232812499	2.806840744283705e-22
-0.4889678881249999	2.765018824451059e-22
-0.4889068529687499	2.72314207511944e-22
-0.4888458178124999	2.6812109349158574e-22
-0.4887847826562499	2.639225516515082e-22
-0.4887237474999999	2.597185785469964e-22
-0.4886627123437499	2.555091718648068e-22
-0.4886016771874999	2.5129434653097e-22
-0.4885406420312499	2.4707414999624445e-22
-0.4884796068749999	2.4284866787535914e-22
-0.4884185717187499	2.3861801972617717e-22
-0.4883575365624999	2.343823482683822e-22
-0.4882965014062499	2.301418034092666e-22
-0.4882354662499999	2.258965264423011e-22
-0.4881744310937499	2.216466356914278e-22
-0.4881133959374999	2.173922130465973e-22
-0.4880523607812499	2.131333020285979e-22
-0.4879913256249999	2.0886992169602965e-22
-0.4879302904687499	2.0460208373333936e-22
-0.4878692553124999	2.003298051509942e-22
-0.4878082201562499	1.96053119652393e-22
-0.4877471849999999	1.9177208935188373e-22
-0.4876861498437499	1.8748681058842914e-22
-0.4876251146874999	1.8319740598770563e-22
-0.4875640795312499	1.7890400677905966e-22
-0.4875030443749999	1.7460673807010667e-22
-0.4874420092187499	1.7030571270854292e-22
-0.4873809740624999	1.6600102631374716e-22
-0.4873199389062499	1.6169275086073536e-22
-0.4872589037499999	1.5738093578662615e-22
-0.4871978685937499	1.530656178944051e-22
-0.4871368334374999	1.4874683280257364e-22
-0.4870757982812499	1.4442462250466278e-22
-0.4870147631249999	1.4009904088162318e-22
-0.4869537279687499	1.3577015962421688e-22
-0.4868926928124999	1.3143806826235678e-22
-0.4868316576562499	1.2710286873070908e-22
-0.4867706224999999	1.2276466830191676e-22
-0.4867095873437499	1.1842356967754025e-22
-0.4866485521874999	1.1407966477658355e-22
-0.4865875170312499	1.0973303271996576e-22
-0.4865264818749999	1.053837362036705e-22
-0.4864654467187499	1.010318222576581e-22
-0.4864044115624999	9.667732877883094e-23
-0.4863433764062499	9.232029090955204e-23
-0.4862823412499999	8.796074956164955e-23
-0.4862213060937499	8.359876092764679e-23
-0.4861602709374999	7.923439958769332e-23
-0.4860992357812499	7.486775558019844e-23
-0.4860382006249999	7.049893055873394e-23
-0.4859771654687499	6.612803483507057e-23
-0.4859161303124999	6.175518194956581e-23
-0.4858550951562499	5.738048007288558e-23
-0.4857940599999999	5.300402535292518e-23
-0.4857330248437499	4.8625897768754183e-23
-0.4856719896874999	4.4246159402673155e-23
-0.4856109545312499	3.9864858256528776e-23
-0.4855499193749999	3.548203760951742e-23
-0.4854888842187499	3.109774565494435e-23
-0.4854278490624999	2.671203870014226e-23
-0.4853668139062499	2.2324982645742306e-23
-0.4853057787499999	1.7936658978847117e-23
-0.4852447435937499	1.354716656207765e-23
-0.4851837084374999	9.156615038325026e-24
-0.4851226732812499	4.7651181188788966e-24
-0.4850616381249999	3.7278851509068267e-25
-0.4850006029687499	-4.020267706222138e-24
-0.4849395678124999	-8.413954923029017e-24
-0.4848785326562499	-1.280819195855019e-23
-0.4848174974999999	-1.7202916565324762e-23
-0.4847564623437499	-2.1598080583370914e-23
-0.4846954271874999	-2.5993635005199934e-23
-0.4846343920312499	-3.038952036333338e-23
-0.4845733568749999	-3.47856704427855e-23
-0.4845123217187499	-3.918201632584611e-23
-0.4844512865624999	-4.357848061896159e-23
-0.4843902514062499	-4.797497196239132e-23
-0.4843292162499999	-5.237138844069114e-23
-0.4842681810937499	-5.676762729632541e-23
-0.4842071459374999	-6.116359494955697e-23
-0.4841461107812499	-6.555920957160529e-23
-0.4840850756249999	-6.995439842529951e-23
-0.4840240404687499	-7.434909875122112e-23
-0.4839630053124999	-7.874325715590378e-23
-0.4839019701562499	-8.313682054245962e-23
-0.4838409349999999	-8.752972694338391e-23
-0.4837798998437499	-9.192190264879009e-23
-0.4837188646874999	-9.631326096977079e-23
-0.4836578295312499	-1.0070370268946754e-22
-0.4835967943749999	-1.0509312180717588e-22
-0.4835357592187499	-1.0948141210821337e-22
-0.4834747240624999	-1.1386847147938867e-22
-0.4834136889062499	-1.1825420626511741e-22
-0.4833526537499999	-1.2263853533720066e-22
-0.4832916185937499	-1.2702139249701484e-22
-0.4832305834374999	-1.3140272418442385e-22
-0.4831695482812499	-1.3578248166453695e-22
-0.4831085131249999	-1.4016061227476872e-22
-0.4830474779687499	-1.4453705083537812e-22
-0.4829864428124999	-1.4891171374375208e-22
-0.4829254076562499	-1.5328450331017117e-22
-0.4828643724999999	-1.5765532021657764e-22
-0.4828033373437499	-1.620240727665346e-22
-0.4827423021874999	-1.6639067690710932e-22
-0.4826812670312499	-1.7075505243117387e-22
-0.4826202318749999	-1.7511712423518927e-22
-0.4825591967187499	-1.7947682427697398e-22
-0.4824981615624999	-1.83834085616131e-22
-0.4824371264062499	-1.881888355688293e-22
-0.4823760912499999	-1.9254099546252178e-22
-0.4823150560937499	-1.968904818990149e-22
-0.4822540209374999	-2.0123720564403492e-22
-0.4821929857812499	-2.0558107190228986e-22
-0.4821319506249999	-2.0992198628395887e-22
-0.4820709154687499	-2.142598637416832e-22
-0.4820098803124999	-2.18594633072134e-22
-0.4819488451562499	-2.229262344777794e-22
-0.4818878099999999	-2.272546142878146e-22
-0.4818267748437499	-2.3157972021308906e-22
-0.4817657396874999	-2.359014973189088e-22
-0.4817047045312499	-2.4021988401048204e-22
-0.4816436693749999	-2.445348069601101e-22
-0.4815826342187499	-2.488461778268184e-22
-0.4815215990624999	-2.531538950549556e-22
-0.4814605639062499	-2.574578475513848e-22
-0.4813995287499999	-2.61757919261177e-22
-0.4813384935937499	-2.660539975436916e-22
-0.4812774584374999	-2.7034598221540604e-22
-0.4812164232812499	-2.746337924476653e-22
-0.4811553881249999	-2.7891737176859453e-22
-0.4810943529687499	-2.8319668443311896e-22
-0.4810333178124999	-2.8747170136310266e-22
-0.4809722826562499	-2.9174238707201066e-22
-0.4809112474999999	-2.9600869386495506e-22
-0.4808502123437499	-3.002705594868893e-22
-0.4807891771874999	-3.0452790458368287e-22
-0.4807281420312499	-3.087806304472955e-22
-0.4806671068749999	-3.1302862253706454e-22
-0.4806060717187499	-3.172717618041911e-22
-0.4805450365624999	-3.2150993517469044e-22
-0.4804840014062499	-3.257430407387772e-22
-0.4804229662499999	-3.2997099164408137e-22
-0.4803619310937499	-3.341937177719632e-22
-0.4803008959374999	-3.384111627253366e-22
-0.4802398607812499	-3.426232780928687e-22
-0.4801788256249999	-3.468300168400224e-22
-0.4801177904687499	-3.51031326632008e-22
-0.4800567553124999	-3.5522714457847087e-22
-0.4799957201562499	-3.594173945505055e-22
-0.4799346849999999	-3.636019867776162e-22
-0.4798736498437499	-3.6778082140113197e-22
-0.4798126146874999	-3.719537978243832e-22
-0.4797515795312499	-3.7612082324313806e-22
-0.4796905443749999	-3.8028181328022296e-22
-0.4796295092187499	-3.84436689751597e-22
-0.4795684740624999	-3.8858538124016013e-22
-0.4795074389062499	-3.927278244735093e-22
-0.4794464037499999	-3.968639634143801e-22
-0.4793853685937499	-4.0099374322037114e-22
-0.4793243334374999	-4.0511710121249546e-22
-0.4792632982812499	-4.0923396234815045e-22
-0.4792022631249999	-4.1334424208263486e-22
-0.4791412279687499	-4.174478521461497e-22
-0.4790801928124999	-4.215447032489371e-22
-0.4790191576562499	-4.256347046732556e-22
-0.4789581224999999	-4.297177650774041e-22
-0.4788970873437499	-4.3379379593928795e-22
-0.4788360521874999	-4.378627160480911e-22
-0.4787750170312499	-4.419244541414521e-22
-0.4787139818749999	-4.459789476415446e-22
-0.4786529467187499	-4.500261400180251e-22
-0.4785919115624999	-4.540659775182985e-22
-0.4785308764062499	-4.580984030761345e-22
-0.4784698412499999	-4.621233513565456e-22
-0.4784088060937499	-4.661407478370971e-22
-0.4783477709374999	-4.701505088998125e-22
-0.4782867357812499	-4.741525415770949e-22
-0.4782257006249999	-4.781467444666275e-22
-0.4781646654687499	-4.821330135943545e-22
-0.4781036303124999	-4.861112512874037e-22
-0.4780425951562499	-4.900813700572964e-22
-0.4779815599999999	-4.940432921524368e-22
-0.4779205248437499	-4.979969498201168e-22
-0.4778594896874999	-5.019422866606457e-22
-0.4777984545312499	-5.058792566724313e-22
-0.4777374193749999	-5.098078169765648e-22
-0.4776763842187499	-5.137279188316109e-22
-0.4776153490624999	-5.176395018105947e-22
-0.4775543139062499	-5.215424893143682e-22
-0.4774932787499999	-5.254367899325466e-22
-0.4774322435937499	-5.293223063894738e-22
-0.4773712084374999	-5.331989411716837e-22
-0.4773101732812499	-5.370665961828342e-22
-0.4772491381249999	-5.409251765828095e-22
-0.4771881029687499	-5.447745989100451e-22
-0.4771270678124999	-5.486147935733422e-22
-0.4770660326562499	-5.524457014887878e-22
-0.4770049974999999	-5.562672707440056e-22
-0.4769439623437499	-5.600794527908531e-22
-0.4768829271874999	-5.638821980351522e-22
-0.4768218920312499	-5.67675452651844e-22
-0.4767608568749999	-5.71459154578326e-22
-0.4766998217187499	-5.752332306027608e-22
-0.4766387865624999	-5.789975969330974e-22
-0.4765777514062499	-5.827521600710622e-22
-0.4765167162499999	-5.86496819251915e-22
-0.4764556810937499	-5.90231472662835e-22
-0.4763946459374999	-5.939560236401095e-22
-0.4763336107812499	-5.976703833148838e-22
-0.4762725756249999	-6.013744728226147e-22
-0.4762115404687499	-6.050682294971197e-22
-0.4761505053124999	-6.087516107035843e-22
-0.4760894701562499	-6.124245882996522e-22
-0.4760284349999999	-6.160871391089716e-22
-0.4759673998437499	-6.197392364936996e-22
-0.4759063646874999	-6.2338084201782205e-22
-0.4758453295312499	-6.270118968628724e-22
-0.4757842943749999	-6.306323159673598e-22
-0.4757232592187499	-6.342419898325157e-22
-0.4756622240624999	-6.378407931968027e-22
-0.4756011889062499	-6.414285965039541e-22
-0.4755401537499999	-6.4500527915399325e-22
-0.4754791185937499	-6.485707417569217e-22
-0.4754180834374999	-6.52124914905423e-22
-0.4753570482812499	-6.556677626790009e-22
-0.4752960131249999	-6.591992776630504e-22
-0.4752349779687499	-6.627194695088363e-22
-0.4751739428124999	-6.662283495528742e-22
-0.4751129076562499	-6.697259125870324e-22
-0.4750518724999999	-6.732121218128397e-22
-0.4749908373437499	-6.766869002105116e-22
-0.4749298021874999	-6.801501293914919e-22
-0.4748687670312499	-6.836016599060033e-22
-0.4748077318749999	-6.870413308467231e-22
-0.4747466967187499	-6.904689905742274e-22
-0.4746856615624999	-6.9388451343142625e-22
-0.4746246264062499	-6.972878116344163e-22
-0.4745635912499999	-7.006788420025114e-22
-0.4745025560937499	-7.040576058773005e-22
-0.4744415209374999	-7.074241390051762e-22
-0.4743804857812499	-7.107784896107091e-22
-0.4743194506249999	-7.1412069150376105e-22
-0.4742584154687499	-7.174507430137834e-22
-0.4741973803124999	-7.2076859398785085e-22
-0.4741363451562499	-7.240741396964372e-22
-0.4740753099999999	-7.273672267183055e-22
-0.4740142748437499	-7.3064767245266155e-22
-0.4739532396874999	-7.33915289360367e-22
-0.4738922045312499	-7.371699067772638e-22
-0.4738311693749999	-7.404113904420965e-22
-0.4737701342187499	-7.4363965783696935e-22
-0.4737090990624999	-7.46854684193298e-22
-0.4736480639062499	-7.500564963438696e-22
-0.4735870287499999	-7.532451549635221e-22
-0.4735259935937499	-7.564207289039369e-22
-0.4734649584374999	-7.595832687428588e-22
-0.4734039232812499	-7.627327865772431e-22
-0.4733428881249999	-7.658692436740178e-22
-0.4732818529687499	-7.68992546208812e-22
-0.4732208178124999	-7.721025516766115e-22
-0.4731597826562499	-7.751990849939422e-22
-0.4730987474999999	-7.782819600242962e-22
-0.4730377123437499	-7.813510022703343e-22
-0.4729766771874999	-7.84406068171532e-22
-0.4729156420312499	-7.874470588716521e-22
-0.4728546068749999	-7.904739265578707e-22
-0.4727935717187499	-7.934866707983758e-22
-0.4727325365624999	-7.964853266315506e-22
-0.4726715014062499	-7.994699474937004e-22
-0.4726104662499999	-8.024405849250816e-22
-0.4725494310937499	-8.053972687884431e-22
-0.4724883959374999	-8.08339992408894e-22
-0.4724273607812499	-8.112687049604018e-22
-0.4723663256249999	-8.141833120546469e-22
-0.4723052904687499	-8.170836835290821e-22
-0.4722442553124999	-8.1996966499675375e-22
-0.4721832201562499	-8.228410922263015e-22
-0.4721221849999999	-8.256978074013349e-22
-0.4720611498437499	-8.285396722974683e-22
-0.4720001146874999	-8.313665759770213e-22
-0.4719390795312499	-8.341784372062295e-22
-0.4718780443749999	-8.369752006600859e-22
-0.4718170092187499	-8.397568282172355e-22
-0.4717559740624999	-8.4252328713251435e-22
-0.4716949389062499	-8.452745340905716e-22
-0.4716339037499999	-8.480105069598836e-22
-0.4715728685937499	-8.507311539314492e-22
-0.4715118334374999	-8.534364982162538e-22
