Time	Frequency
-0.5000610273124999	-1.9070532883082797e-21
-0.4999999921562499	-1.9036732345645655e-21
-0.4999389569999999	-1.9002702427711724e-21
-0.4998779218437499	-1.896844456229174e-21
-0.4998168866874999	-1.893395970293688e-21
-0.4997558515312499	-1.8899248302893786e-21
-0.4996948163749999	-1.8864310307960263e-21
-0.4996337812187499	-1.8829145167792565e-21
-0.4995727460624999	-1.879375187012012e-21
-0.4995117109062499	-1.875812898887807e-21
-0.4994506757499999	-1.8722274738765568e-21
-0.4993896405937499	-1.868618703760836e-21
-0.4993286054374999	-1.8649863575857693e-21
-0.4992675702812499	-1.8613301895518777e-21
-0.4992065351249999	-1.857649947958026e-21
-0.4991454999687499	-1.853945384505051e-21
-0.4990844648124999	-1.850216263204958e-21
-0.4990234296562499	-1.8464623686599073e-21
-0.4989623944999999	-1.8426835140681674e-21
-0.4989013593437499	-1.8388795487209282e-21
-0.4988403241874999	-1.8350503644034794e-21
-0.4987792890312499	-1.831195900405612e-21
-0.4987182538749999	-1.827316146322133e-21
-0.4986572187187499	-1.8234111429980627e-21
-0.4985961835624999	-1.8194809826665688e-21
-0.4985351484062499	-1.8155258075921595e-21
-0.4984741132499999	-1.811545806841039e-21
-0.4984130780937499	-1.807541211958004e-21
-0.4983520429374999	-1.803512291654625e-21
-0.4982910077812499	-1.799459345312572e-21
-0.4982299726249999	-1.795382695344338e-21
-0.4981689374687499	-1.7912826781300403e-21
-0.4981079023124999	-1.7871596344455832e-21
-0.4980468671562499	-1.7830139011632493e-21
-0.4979858319999999	-1.7788458033610123e-21
-0.4979247968437499	-1.7746556452251012e-21
-0.4978637616874999	-1.7704437008545995e-21
-0.4978027265312499	-1.7662102067079005e-21
-0.4977416913749999	-1.7619553556155682e-21
-0.4976806562187499	-1.7576792917855117e-21
-0.4976196210624999	-1.7533821077098046e-21
-0.4975585859062499	-1.7490638432547386e-21
-0.4974975507499999	-1.744724485247361e-21
-0.4974365155937499	-1.7403639675308604e-21
-0.4973754804374999	-1.7359821734253833e-21
-0.4973144452812499	-1.7315789409659057e-21
-0.4972534101249999	-1.7271540696256344e-21
-0.4971923749687499	-1.722707327798147e-21
-0.4971313398124999	-1.7182384610684146e-21
-0.4970703046562499	-1.7137472008042703e-21
-0.4970092694999999	-1.70923327298331e-21
-0.4969482343437499	-1.704696408230001e-21
-0.4968871991874999	-1.700136352639351e-21
-0.4968261640312499	-1.6955528772771695e-21
-0.4967651288749999	-1.6909457858492935e-21
-0.4967040937187499	-1.6863149220114192e-21
-0.4966430585624999	-1.6816601767023555e-21
-0.4965820234062499	-1.6769814938499122e-21
-0.4965209882499999	-1.672278873490379e-21
-0.4964599530937499	-1.66755237367203e-21
-0.4963989179374999	-1.662802111965601e-21
-0.4963378827812499	-1.6580282650958117e-21
-0.4962768476249999	-1.6532310654914443e-21
-0.4962158124687499	-1.648410795915331e-21
-0.4961547773124999	-1.643567783589313e-21
-0.4960937421562499	-1.638702393311306e-21
-0.4960327069999999	-1.6338150192588766e-21
-0.4959716718437499	-1.6289060759395746e-21
-0.4959106366874999	-1.6239759882580657e-21
-0.4958496015312499	-1.6190251810137283e-21
-0.4957885663749999	-1.6140540687132463e-21
-0.4957275312187499	-1.6090630458949288e-21
-0.4956664960624999	-1.6040524768745963e-21
-0.4956054609062499	-1.599022684903828e-21
-0.4955444257499999	-1.5939739432097814e-21
-0.4954833905937499	-1.5889064694459312e-21
-0.4954223554374999	-1.5838204217248445e-21
-0.4953613202812499	-1.5787158944987602e-21
-0.4953002851249999	-1.5735929157274484e-21
-0.4952392499687499	-1.5684514466102289e-21
-0.4951782148124999	-1.5632913832437113e-21
-0.4951171796562499	-1.5581125603323115e-21
-0.4950561444999999	-1.5529147566952728e-21
-0.4949951093437499	-1.5476977018003225e-21
-0.4949340741874999	-1.54246108432087e-21
-0.4948730390312499	-1.5372045620983257e-21
-0.4948120038749999	-1.5319277719534178e-21
-0.4947509687187499	-1.526630340943359e-21
-0.4946899335624999	-1.5213118993829423e-21
-0.4946288984062499	-1.5159720933582263e-21
-0.4945678632499999	-1.5106105965158739e-21
-0.4945068280937499	-1.5052271216009398e-21
-0.4944457929374999	-1.4998214307291035e-21
-0.4943847577812499	-1.4943933442475365e-21
-0.4943237226249999	-1.4889427485606634e-21
-0.4942626874687499	-1.4834696020149e-21
-0.4942016523124999	-1.477973938882892e-21
-0.4941406171562499	-1.4724558720379864e-21
-0.4940795819999999	-1.4669155930097906e-21
-0.4940185468437499	-1.461353368742711e-21
-0.4939575116874999	-1.4557695360578757e-21
-0.4938964765312499	-1.4501644941354259e-21
-0.4938354413749999	-1.4445386952088313e-21
-0.4937744062187499	-1.438892634374863e-21
-0.4937133710624999	-1.4332268384222146e-21
-0.4936523359062499	-1.427541852954749e-21
-0.4935913007499999	-1.4218382284936945e-21
-0.4935302655937499	-1.4161165065979723e-21
-0.4934692304374999	-1.4103772058523766e-21
-0.4934081952812499	-1.404620807742432e-21
-0.4933471601249999	-1.3988477438487815e-21
-0.4932861249687499	-1.3930583857739468e-21
-0.4932250898124999	-1.387253037242297e-21
-0.4931640546562499	-1.381431927106059e-21
-0.4931030194999999	-1.3755952035806385e-21
-0.4930419843437499	-1.369742930929956e-21
-0.4929809491874999	-1.363875089722865e-21
-0.4929199140312499	-1.3579915799801255e-21
-0.4928588788749999	-1.3520922255171131e-21
-0.4927978437187499	-1.3461767807380892e-21
-0.4927368085624999	-1.340244940605512e-21
-0.4926757734062499	-1.3342963517548456e-21
-0.4926147382499999	-1.328330624479231e-21
-0.4925537030937499	-1.322347346183304e-21
-0.4924926679374999	-1.3163460954665204e-21
-0.4924316327812499	-1.3103264560781186e-21
-0.4923705976249999	-1.3042880308060517e-21
-0.4923095624687499	-1.2982304551029583e-21
-0.4922485273124999	-1.2921534094031273e-21
-0.4921874921562499	-1.2860566297439709e-21
-0.4921264569999999	-1.2799399175214963e-21
-0.4920654218437499	-1.2738031478582404e-21
-0.4920043866874999	-1.267646274887589e-21
-0.4919433515312499	-1.261469333937337e-21
-0.4918823163749999	-1.2552724412905381e-21
-0.4918212812187499	-1.2490557918394562e-21
-0.4917602460624999	-1.2428196548368646e-21
-0.4916992109062499	-1.2365643671409114e-21
-0.4916381757499999	-1.2302903239903126e-21
-0.4915771405937499	-1.2239979682750524e-21
-0.4915161054374999	-1.2176877787665942e-21
-0.4914550702812499	-1.2113602574105427e-21
-0.4913940351249999	-1.2050159155444263e-21
-0.4913329999687499	-1.1986552597414373e-21
-0.4912719648124999	-1.1922787787450263e-21
-0.4912109296562499	-1.185886931441783e-21
-0.4911498944999999	-1.1794801355671529e-21
-0.4910888593437499	-1.1730587577368061e-21
-0.4910278241874999	-1.1666231043952699e-21
-0.4909667890312499	-1.1601734142369327e-21
-0.4909057538749999	-1.1537098541520827e-21
-0.4908447187187499	-1.1472325179468374e-21
-0.4907836835624999	-1.1407414264129136e-21
-0.4907226484062499	-1.134236530220039e-21
-0.4906616132499999	-1.1277177154214424e-21
-0.4906005780937499	-1.121184809316193e-21
-0.4905395429374999	-1.1146375873513876e-21
-0.4904785077812499	-1.1080757827751322e-21
-0.4904174726249999	-1.10149909858781e-21
-0.4903564374687499	-1.094907220207806e-21
-0.4902954023124999	-1.0882998281819047e-21
-0.4902343671562499	-1.0816766113516398e-21
-0.4901733319999999	-1.0750372792726566e-21
-0.4901122968437499	-1.06838157236371e-21
-0.4900512616874999	-1.0617092713622062e-21
-0.4899902265312499	-1.0550202074944123e-21
-0.4899291913749999	-1.0483142714737852e-21
-0.4898681562187499	-1.0415914191443512e-21
-0.4898071210624999	-1.0348516740462354e-21
-0.4897460859062499	-1.0280951282345128e-21
-0.4896850507499999	-1.021321941747543e-21
-0.4896240155937499	-1.0145323410110076e-21
-0.4895629804374999	-1.0077266157825768e-21
-0.4895019452812499	-1.000905113048994e-21
-0.4894409101249999	-9.940682283336632e-22
-0.4893798749687499	-9.872163962138058e-22
-0.4893188398124999	-9.803500799148901e-22
-0.4892578046562499	-9.734697598543607e-22
-0.4891967694999999	-9.665759221632794e-22
-0.4891357343437499	-9.596690466598633e-22
-0.4890746991874999	-9.52749594194886e-22
-0.4890136640312499	-9.45817995811163e-22
-0.4889526288749999	-9.388746434872575e-22
-0.4888915937187499	-9.319198803274654e-22
-0.4888305585624999	-9.249539918438038e-22
-0.4887695234062499	-9.179772002988313e-22
-0.4887084882499999	-9.109896610108172e-22
-0.4886474530937499	-9.03991459994926e-22
-0.4885864179374999	-8.969826136565017e-22
-0.4885253827812499	-8.899630707983512e-22
-0.4884643476249999	-8.829327168721844e-22
-0.4884033124687499	-8.758913799766559e-22
-0.4883422773124999	-8.688388383192692e-22
-0.4882812421562499	-8.617748292723827e-22
-0.4882202069999999	-8.546990594292115e-22
-0.4881591718437499	-8.476112153752827e-22
-0.4880981366874999	-8.405109752521833e-22
-0.4880371015312499	-8.333980209627556e-22
-0.4879760663749999	-8.262720507897095e-22
-0.4879150312187499	-8.19132791208854e-22
-0.4878539960624999	-8.11980006986535e-22
-0.4877929609062499	-8.04813510162651e-22
-0.4877319257499999	-7.976331683803795e-22
-0.4876708905937499	-7.904389122024885e-22
-0.4876098554374999	-7.832307403998246e-22
-0.4875488202812499	-7.760087220611492e-22
-0.4874877851249999	-7.687729960729914e-22
-0.4874267499687499	-7.61523769879332e-22
-0.4873657148124999	-7.542613177951836e-22
-0.4873046796562499	-7.469859769632519e-22
-0.4872436444999999	-7.39698140048982e-22
-0.4871826093437499	-7.323982457074199e-22
-0.4871215741874999	-7.250867681262844e-22
-0.4870605390312499	-7.177642069593914e-22
-0.4869995038749999	-7.104310766812277e-22
-0.4869384687187499	-7.03087893634194e-22
-0.4868774335624999	-6.957351632551717e-22
-0.4868163984062499	-6.883733693179481e-22
-0.4867553632499999	-6.810029630975603e-22
-0.4866943280937499	-6.736243518788673e-22
-0.4866332929374999	-6.662378884339585e-22
-0.4865722577812499	-6.588438628464597e-22
-0.4865112226249999	-6.514424970870725e-22
-0.4864501874687499	-6.440339417388013e-22
-0.4863891523124999	-6.366182743882482e-22
-0.4863281171562499	-6.291954997759601e-22
-0.4862670819999999	-6.217655521781299e-22
-0.4862060468437499	-6.143283000283892e-22
-0.4861450116874999	-6.068835521276027e-22
-0.4860839765312499	-5.994310654684055e-22
-0.4860229413749999	-5.919705548190355e-22
-0.4859619062187499	-5.84501704045945e-22
-0.4859008710624999	-5.77024179561432e-22
-0.4858398359062499	-5.695376446330727e-22
-0.4857788007499999	-5.620417724908048e-22
-0.4857177655937499	-5.545362588305129e-22
-0.4856567304374999	-5.470208343976484e-22
-0.4855956952812499	-5.394952760197282e-22
-0.4855346601249999	-5.319594156059978e-22
-0.4854736249687499	-5.2441314781023715e-22
-0.4854125898124999	-5.168564359586466e-22
-0.4853515546562499	-5.092893160532186e-22
-0.4852905194999999	-5.017118986844898e-22
-0.4852294843437499	-4.941243682363021e-22
-0.4851684491874999	-4.865269800907359e-22
-0.4851074140312499	-4.789200565852429e-22
-0.4850463788749999	-4.713039806865512e-22
-0.4849853437187499	-4.636791865631385e-22
-0.4849243085624999	-4.560461484213961e-22
-0.4848632734062499	-4.484053693701429e-22
-0.4848022382499999	-4.407573700371402e-22
-0.4847412030937499	-4.331026765281008e-22
-0.4846801679374999	-4.254418082364732e-22
-0.4846191327812499	-4.177752649622209e-22
-0.4845580976249999	-4.1010351334752705e-22
-0.4844970624687499	-4.024269743929749e-22
-0.4844360273124999	-3.94746012805233e-22
-0.4843749921562499	-3.8706092778367796e-22
-0.4843139569999999	-3.793719454735599e-22
-0.4842529218437499	-3.7167921335940154e-22
-0.4841918866874999	-3.6398279683693485e-22
-0.4841308515312499	-3.5628267904698415e-22
-0.4840698163749999	-3.485787638851214e-22
-0.4840087812187499	-3.4087088016956783e-22
-0.4839477460624999	-3.3315878775267548e-22
-0.4838867109062499	-3.2544218791799884e-22
-0.4838256757499999	-3.177207362472536e-22
-0.4837646405937499	-3.099940558695183e-22
-0.4837036054374999	-3.0226175184658503e-22
-0.4836425702812499	-2.945234263679459e-22
-0.4835815351249999	-2.867786939024937e-22
-0.4835204999687499	-2.79027196411947e-22
-0.4834594648124999	-2.7126861766078387e-22
-0.4833984296562499	-2.635026954792563e-22
-0.4833373944999999	-2.557292327345957e-22
-0.4832763593437499	-2.4794810783887993e-22
-0.4832153241874999	-2.401592830117672e-22
-0.4831542890312499	-2.323628086117569e-22
-0.4830932538749999	-2.2455882460107076e-22
-0.4830322187187499	-2.1674755991570437e-22
-0.4829711835624999	-2.0892932959006747e-22
-0.4829101484062499	-2.0110452993684164e-22
-0.4828491132499999	-1.9327363174287504e-22
-0.4827880780937499	-1.8543717100807668e-22
-0.4827270429374999	-1.775957369935733e-22
-0.4826660077812499	-1.6974995831935617e-22
-0.4826049726249999	-1.6190048817525665e-22
-0.4825439374687499	-1.5404798829442041e-22
-0.4824829023124999	-1.4619311102729456e-22
-0.4824218671562499	-1.3833648121616412e-22
-0.4823608319999999	-1.3047867952164963e-22
-0.4822997968437499	-1.2262022674901687e-22
-0.4822387616874999	-1.1476156963017096e-22
-0.4821777265312499	-1.0690306898116035e-22
-0.4821166913749999	-9.904499059749115e-23
-0.4820556562187499	-9.118749955787772e-23
-0.4819946210624999	-8.333065779384393e-23
-0.4819335859062499	-7.547442428666504e-23
-0.4818725507499999	-6.761865820352641e-23
-0.4818115155937499	-5.97631254095129e-23
-0.4817504804374999	-5.190750748974244e-23
-0.4816894452812499	-4.405141242850702e-23
-0.4816284101249999	-3.6194387006364793e-23
-0.4815673749687499	-2.833593144948919e-23
-0.4815063398124999	-2.0475516512150528e-23
-0.4814453046562499	-1.261260098734815e-23
-0.4813842694999999	-4.746648459949847e-24
-0.4813232343437499	3.12285434683929e-24
-0.4812621991874999	1.099637745526652e-23
-0.4812011640312499	1.8874329237558773e-23
-0.4811401288749999	2.6757040240712087e-23
-0.4810790937187499	3.4644748177973215e-23
-0.4810180585624999	4.253758608050884e-23
-0.4809570234062499	5.043557470354934e-23
-0.4808959882499999	5.833861812237347e-23
-0.4808349530937499	6.624650251095646e-23
-0.4807739179374999	7.41588985925204e-23
-0.4807128827812499	8.207536686751793e-23
-0.4806518476249999	8.999536541856145e-23
-0.4805908124687499	9.791826171618866e-23
-0.4805297773124999	1.0584334711823754e-22
-0.4804687421562499	1.1376985225112535e-22
-0.4804077069999999	1.2169696479003071e-22
-0.4803466718437499	1.2962384964160392e-22
-0.4802856366874999	1.3754966921861041e-22
-0.4802246015312499	1.4547360318926226e-22
-0.4801635663749999	1.5339486877350285e-22
-0.4801025312187499	1.6131274162279966e-22
-0.4800414960624999	1.6922657543883816e-22
-0.4799804609062499	1.771358189175633e-22
-0.4799194257499999	1.850400295221132e-22
-0.4798583905937499	1.9293888367703368e-22
-0.4797973554374999	2.0083218311486542e-22
-0.4797363202812499	2.0871985723514874e-22
-0.4796752851249999	2.1660196184503575e-22
-0.4796142499687499	2.244786745234553e-22
-0.4795532148124999	2.3235028663673534e-22
-0.4794921796562499	2.4021719231268553e-22
-0.4794311444999999	2.480798746221267e-22
-0.4793701093437499	2.559388894193048e-22
-0.4793090741874999	2.6379484716528887e-22
-0.4792480390312499	2.716483926813895e-22
-0.4791870038749999	2.7950018327825045e-22
-0.4791259687187499	2.87350866549321e-22
-0.4790649335624999	2.952010592310092e-22
-0.4790038984062499	3.0305132725707927e-22
-0.4789428632499999	3.1090216701508195e-22
-0.4788818280937499	3.187539894282596e-22
-0.4788207929374999	3.266071073175302e-22
-0.4787597577812499	3.344617255274177e-22
-0.4786987226249999	3.4231793529761327e-22
-0.4786376874687499	3.501757132923305e-22
-0.4785766523124999	3.5803492342725398e-22
-0.4785156171562499	3.6589532125160003e-22
-0.4784545819999999	3.7375656224132714e-22
-0.4783935468437499	3.8161821404708165e-22
-0.4783325116874999	3.8947977154851223e-22
-0.4782714765312499	3.97340674153381e-22
-0.4782104413749999	4.052003253456237e-22
-0.4781494062187499	4.1305811395611415e-22
-0.4780883710624999	4.209134360008313e-22
-0.4780273359062499	4.287657156832249e-22
-0.4779663007499999	4.366144239788693e-22
-0.4779052655937499	4.444590941815508e-22
-0.4778442304374999	4.5229933454695855e-22
-0.4777831952812499	4.601348365079443e-22
-0.4777221601249999	4.679653760721504e-22
-0.4776611249687499	4.7579080697816225e-22
-0.4776000898124999	4.836110394658838e-22
-0.4775390546562499	4.91425995522209e-22
-0.4774780194999999	4.9923555102400235e-22
-0.4774169843437499	5.070394932287607e-22
-0.4773559491874999	5.148375056122165e-22
-0.4772949140312499	5.226291715556799e-22
-0.4772338788749999	5.304139893390441e-22
-0.4771728437187499	5.381913949296442e-22
-0.4771118085624999	5.459607881702513e-22
-0.4770507734062499	5.537215594191026e-22
-0.4769897382499999	5.614731166747673e-22
-0.4769287030937499	5.692149127933335e-22
-0.4768676679374999	5.769464710539068e-22
-0.4768066327812499	5.846674076605832e-22
-0.4767455976249999	5.923774498103585e-22
-0.4766845624687499	6.000764490486611e-22
-0.4766235273124999	6.077643908563099e-22
-0.4765624921562499	6.154414001822361e-22
-0.4765014569999999	6.231077417266653e-22
-0.4764404218437499	6.307638147812292e-22
-0.4763793866874999	6.384101434859734e-22
-0.4763183515312499	6.460473626775741e-22
-0.4762573163749999	6.536761991882597e-22
-0.4761962812187499	6.612974503122559e-22
-0.4761352460624999	6.6891196101143065e-22
-0.4760742109062499	6.765205991513905e-22
-0.4760131757499999	6.841242285480179e-22
-0.4759521405937499	6.917236820879813e-22
-0.4758911054374999	6.993197366921136e-22
-0.4758300702812499	7.069130895138201e-22
-0.4757690351249999	7.14504335827777e-22
-0.4757079999687499	7.220939504026269e-22
-0.4756469648124999	7.296822723431534e-22
-0.4755859296562499	7.372694933086446e-22
-0.4755248944999999	7.448556501717129e-22
-0.4754638593437499	7.524406223499094e-22
-0.4754028241874999	7.600241336002163e-22
-0.4753417890312499	7.676057585586191e-22
-0.4752807538749999	7.7518493370455075e-22
-0.4752197187187499	7.827609715330893e-22
-0.4751586835624999	7.903330778992465e-22
-0.4750976484062499	7.979003732982277e-22
-0.4750366132499999	8.054619166089251e-22
-0.4749755780937499	8.13016729091634e-22
-0.4749145429374999	8.205638188084207e-22
-0.4748535077812499	8.281022055739109e-22
-0.4747924726249999	8.356309449558513e-22
-0.4747314374687499	8.4314915100838e-22
-0.4746704023124999	8.5065601719403e-22
-0.4746093671562499	8.58150834043675e-22
-0.4745483319999999	8.65633003604099e-22
-0.4744872968437499	8.731020501903848e-22
-0.4744262616874999	8.805576268716644e-22
-0.4743652265312499	8.879995185851907e-22
-0.4743041913749999	8.954276414620839e-22
-0.4742431562187499	9.028420376346956e-22
-0.4741821210624999	9.10242866323625e-22
-0.4741210859062499	9.17630392042217e-22
-0.4740600507499999	9.250049702866461e-22
-0.4739990155937499	9.323670305820525e-22
-0.4739379804374999	9.397170571508432e-22
-0.4738769452812499	9.470555687033362e-22
-0.4738159101249999	9.543830983526705e-22
-0.4737548749687499	9.617001736864692e-22
-0.4736938398124999	9.690072975117657e-22
-0.4736328046562499	9.763049297589322e-22
-0.4735717694999999	9.835934706590327e-22
-0.4735107343437499	9.908732460015348e-22
-0.4734496991874999	9.981444958048567e-22
-0.4733886640312499	1.0054073672995492e-21
-0.4733276288749999	1.0126619112566463e-21
-0.4732665937187499	1.019908080011746e-21
-0.4732055585624999	1.0271457278275269e-21
-0.4731445234062499	1.0343746147714544e-21
-0.4730834882499999	1.041594413993666e-21
-0.4730224530937499	1.0488047218775467e-21
-0.4729614179374999	1.056005069924288e-21
-0.4729003827812499	1.0631949380931905e-21
-0.4728393476249999	1.0703737703199148e-21
-0.4727783124687499	1.0775409910666e-21
-0.4727172773124999	1.0846960210650075e-21
-0.4726562421562499	1.0918382922122789e-21
-0.4725952069999999	1.0989672620221572e-21
-0.4725341718437499	1.1060824270383077e-21
-0.4724731366874999	1.1131833344444573e-21
-0.4724121015312499	1.1202695915611318e-21
-0.4723510663749999	1.127340873440422e-21
-0.4722900312187499	1.1343969283801692e-21
-0.4722289960624999	1.1414375799245065e-21
-0.4721679609062499	1.1484627252135606e-21
-0.4721069257499999	1.1554723315069413e-21
-0.4720458905937499	1.1624664314275636e-21
-0.4719848554374999	1.1694451156072384e-21
-0.4719238202812499	1.1764085224443091e-21
-0.4718627851249999	1.1833568264317557e-21
-0.4718017499687499	1.1902902254875529e-21
