Time	Frequency
-0.5000305106249998	2.0180484528568097e-21
-0.4999694754687498	2.0180045723052272e-21
-0.4999084403124998	2.017935821506499e-21
-0.4998474051562498	2.017842339052372e-21
-0.4997863699999998	2.017724221376334e-21
-0.4997253348437498	2.017581519851336e-21
-0.4996642996874998	2.017414239126656e-21
-0.4996032645312498	2.0172223370705186e-21
-0.4995422293749998	2.0170057268214707e-21
-0.4994811942187498	2.0167642810047212e-21
-0.4994201590624998	2.0164978372427778e-21
-0.4993591239062498	2.016206204376181e-21
-0.4992980887499998	2.0158891695311293e-21
-0.4992370535937498	2.015546505806739e-21
-0.4991760184374998	2.0151779803243324e-21
-0.4991149832812498	2.014783362663585e-21
-0.4990539481249998	2.0143624333261635e-21
-0.4989929129687498	2.0139149916281632e-21
-0.4989318778124998	2.013440862534994e-21
-0.4988708426562498	2.0129399020975123e-21
-0.4988098074999998	2.0124120014972408e-21
-0.4987487723437498	2.011857090280658e-21
-0.4986877371874998	2.0112751386584735e-21
-0.4986267020312498	2.0106661578516737e-21
-0.4985656668749998	2.0100301987291912e-21
-0.4985046317187498	2.0093673493347608e-21
-0.4984435965624998	2.0086777309167604e-21
-0.4983825614062498	2.007961492729206e-21
-0.4983215262499998	2.0072188062344223e-21
-0.4982604910937498	2.0064498585024e-21
-0.4981994559374998	2.0056548448522544e-21
-0.4981384207812498	2.0048339615931043e-21
-0.4980773856249998	2.0039873991876755e-21
-0.4980163504687498	2.003115335453475e-21
-0.4979553153124998	2.0022179292415203e-21
-0.4978942801562498	2.001295315255009e-21
-0.4978332449999998	2.0003475997922226e-21
-0.4977722098437498	1.9993748574682246e-21
-0.4977111746874998	1.9983771294637773e-21
-0.4976501395312498	1.997354423377868e-21
-0.4975891043749998	1.9963067140754985e-21
-0.4975280692187498	1.9952339452555904e-21
-0.4974670340624998	1.9941360324474655e-21
-0.4974059989062498	1.9930128677037313e-21
-0.4973449637499998	1.991864325102785e-21
-0.4972839285937498	1.9906902662558703e-21
-0.4972228934374998	1.9894905459035064e-21
-0.4971618582812498	1.988265017955391e-21
-0.4971008231249998	1.9870135415591097e-21
-0.4970397879687498	1.9857359864621372e-21
-0.4969787528124998	1.9844322376879537e-21
-0.4969177176562498	1.9831021997945963e-21
-0.4968566824999998	1.9817458003519835e-21
-0.4967956473437498	1.980362992215098e-21
-0.4967346121874998	1.978953754814184e-21
-0.4966735770312498	1.9775180944028166e-21
-0.4966125418749998	1.9760560427167145e-21
-0.4965515067187498	1.974567654465856e-21
-0.4964904715624998	1.973053004618646e-21
-0.4964294364062498	1.9715121851171874e-21
-0.4963684012499998	1.9699453002986784e-21
-0.4963073660937498	1.968352461790718e-21
-0.4962463309374998	1.9667337837425358e-21
-0.4961852957812498	1.9650893783077764e-21
-0.4961242606249998	1.9634193513319545e-21
-0.4960632254687498	1.961723798366174e-21
-0.4960021903124998	1.960002801267585e-21
-0.4959411551562498	1.9582564254370985e-21
-0.4958801199999998	1.956484717545129e-21
-0.4958190848437498	1.954687704561188e-21
-0.4957580496874998	1.952865394588858e-21
-0.4956970145312498	1.951017778088192e-21
-0.4956359793749998	1.9491448289009876e-21
-0.4955749442187498	1.9472465066130433e-21
-0.4955139090624998	1.945322760520072e-21
-0.4954528739062498	1.9433735338941554e-21
-0.4953918387499998	1.941398768337077e-21
-0.4953308035937498	1.939398408263223e-21
-0.4952697684374998	1.93737240512376e-21
-0.4952087332812498	1.9353207216277747e-21
-0.4951476981249998	1.9332433356209847e-21
-0.4950866629687498	1.9311402428450684e-21
-0.4950256278124998	1.929011459068713e-21
-0.4949645926562498	1.9268570217275798e-21
-0.4949035574999998	1.9246769901503545e-21
-0.4948425223437498	1.9224714443480068e-21
-0.4947814871874998	1.9202404830993695e-21
-0.4947204520312498	1.9179842216254554e-21
-0.4946594168749998	1.9157027884636525e-21
-0.4945983817187498	1.9133963211543697e-21
-0.4945373465624998	1.9110649613217417e-21
-0.4944763114062498	1.908708849820437e-21
-0.4944152762499998	1.9063281219465347e-21
-0.4943542410937498	1.903922902670526e-21
-0.4942932059374998	1.9014933018885675e-21
-0.4942321707812498	1.8990394099438263e-21
-0.4941711356249998	1.8965612939639388e-21
-0.4941101004687498	1.8940589951163852e-21
-0.4940490653124998	1.891532526715531e-21
-0.4939880301562498	1.8889818736986984e-21
-0.4939269949999998	1.8864069935547567e-21
-0.4938659598437498	1.8838078177745586e-21
-0.4938049246874998	1.88118425380717e-21
-0.4937438895312498	1.8785361883777016e-21
-0.4936828543749998	1.8758634923169896e-21
-0.4936218192187498	1.873166026577151e-21
-0.4935607840624998	1.8704436485324627e-21
-0.4934997489062498	1.8676962179480715e-21
-0.4934387137499998	1.8649236031015694e-21
-0.4933776785937498	1.8621256870158227e-21
-0.4933166434374998	1.8593023730215297e-21
-0.4932556082812498	1.8564535892831546e-21
-0.4931945731249998	1.8535792926031645e-21
-0.4931335379687498	1.8506794717400357e-21
-0.4930725028124998	1.8477541494954464e-21
-0.4930114676562498	1.844803383257955e-21
-0.4929504324999998	1.8418272650030972e-21
-0.4928893973437498	1.8388259204169615e-21
-0.4928283621874998	1.835799505518473e-21
-0.4927673270312498	1.8327482014575467e-21
-0.4927062918749998	1.829672209532496e-21
-0.4926452567187498	1.826571746661553e-21
-0.4925842215624998	1.8234470397575376e-21
-0.4925231864062498	1.820298318003349e-21
-0.4924621512499998	1.8171258050550655e-21
-0.4924011160937498	1.813929713216776e-21
-0.4923400809374998	1.8107102378990553e-21
-0.4922790457812498	1.807467551062087e-21
-0.4922180106249998	1.804201795423071e-21
-0.4921569754687498	1.800913080342476e-21
-0.4920959403124998	1.797601478390976e-21
-0.4920349051562498	1.7942670225020937e-21
-0.4919738699999998	1.7909097048481412e-21
-0.4919128348437498	1.7875294778139278e-21
-0.4918517996874998	1.784126256350191e-21
-0.4917907645312498	1.7806999216128922e-21
-0.4917297293749998	1.777250325875433e-21
-0.4916686942187498	1.773777297641342e-21
-0.4916076590624998	1.7702806471363482e-21
-0.4915466239062498	1.7667601735131744e-21
-0.4914855887499998	1.7632156728189685e-21
-0.4914245535937498	1.7596469450213172e-21
-0.4913635184374998	1.756053800897234e-21
-0.4913024832812498	1.752436069773119e-21
-0.4912414481249998	1.7487936075920084e-21
-0.4911804129687498	1.7451263047051474e-21
-0.4911193778124998	1.7414340924251435e-21
-0.4910583426562498	1.7377169475952054e-21
-0.4909973074999998	1.7339748956092748e-21
-0.4909362723437498	1.7302080119579777e-21
-0.4908752371874998	1.7264164223115812e-21
-0.4908142020312498	1.7226003015633527e-21
-0.4907531668749998	1.718759871251186e-21
-0.4906921317187498	1.7148953954994484e-21
-0.4906310965624998	1.7110071758320876e-21
-0.4905700614062498	1.7070955437766018e-21
-0.4905090262499998	1.7031608519622892e-21
-0.4904479910937498	1.6992034648712734e-21
-0.4903869559374998	1.6952237489091817e-21
-0.4903259207812498	1.6912220624948107e-21
-0.4902648856249998	1.6871987465955383e-21
-0.4902038504687498	1.6831541148169813e-21
-0.4901428153124998	1.6790884431526287e-21
-0.4900817801562498	1.6750019609150051e-21
-0.4900207449999998	1.6708948439026088e-21
-0.4899597098437498	1.6667672094105479e-21
-0.4898986746874998	1.6626191121837149e-21
-0.4898376395312498	1.658450541135113e-21
-0.4897766043749998	1.65426141827031e-21
-0.4897155692187498	1.6500516012289958e-21
-0.4896545340624998	1.6458208884857872e-21
-0.4895934989062498	1.6415690256742301e-21
-0.4895324637499998	1.63729571308821e-21
-0.4894714285937498	1.6330006149560845e-21
-0.4894103934374998	1.6286833706486783e-21
-0.4893493582812498	1.6243436074205159e-21
-0.4892883231249998	1.6199809536859862e-21
-0.4892272879687498	1.6155950521529462e-21
-0.4891662528124998	1.6111855726347278e-21
-0.4891052176562498	1.6067522239433704e-21
-0.4890441824999998	1.6022947643399751e-21
-0.4889831473437498	1.5978130112428489e-21
-0.4889221121874998	1.5933068501598388e-21
-0.4888610770312498	1.5887762406504257e-21
-0.4888000418749998	1.5842212189056774e-21
-0.4887390067187498	1.5796418989236961e-21
-0.4886779715624998	1.575038472269536e-21
-0.4886169364062498	1.5704112047762497e-21
-0.4885559012499998	1.5657604299481704e-21
-0.4884948660937498	1.5610865400833302e-21
-0.4884338309374998	1.556389975690918e-21
-0.4883727957812498	1.5516712138649586e-21
-0.4883117606249998	1.5469307564010394e-21
-0.4882507254687498	1.5421691170126123e-21
-0.4881896903124998	1.5373868074080867e-21
-0.4881286551562498	1.532584323243955e-21
-0.4880676199999998	1.5277621308352417e-21
-0.4880065848437498	1.5229206554955223e-21
-0.4879455496874998	1.5180602710396087e-21
-0.4878845145312498	1.513181289673992e-21
-0.4878234793749998	1.5082839538686147e-21
-0.4877624442187498	1.5033684311329527e-21
-0.4877014090624998	1.4984348108131875e-21
-0.4876403739062498	1.4934831035046239e-21
-0.4875793387499998	1.488513243659968e-21
-0.4875183035937498	1.4835250940510538e-21
-0.4874572684374998	1.4785184516866436e-21
-0.4873962332812498	1.4734930561806919e-21
-0.4873351981249998	1.4684486003221651e-21
-0.4872741629687498	1.4633847419742896e-21
-0.4872131278124998	1.4583011168694198e-21
-0.4871520926562498	1.4531973512990195e-21
-0.4870910574999998	1.4480730747731043e-21
-0.4870300223437498	1.4429279342704471e-21
-0.4869689871874998	1.4377616093602666e-21
-0.4869079520312498	1.4325738246523258e-21
-0.4868469168749998	1.4273643584006937e-21
-0.4867858817187498	1.4221330504227352e-21
-0.4867248465624998	1.4168798104338814e-21
-0.4866638114062498	1.4116046237922412e-21
-0.4866027762499998	1.4063075542696012e-21
-0.4865417410937498	1.4009887452126081e-21
-0.4864807059374998	1.3956484176329627e-21
-0.4864196707812498	1.3902868649806166e-21
-0.4863586356249998	1.3849044464494686e-21
-0.4862976004687498	1.379501578279796e-21
-0.4862365653124998	1.374078722090779e-21
-0.4861755301562498	1.3686363717238032e-21
-0.4861144949999998	1.3631750401628705e-21
-0.4860534598437498	1.3576952469765277e-21
-0.4859924246874998	1.3521975056763232e-21
-0.4859313895312498	1.3466823097458171e-21
-0.4858703543749998	1.3411501178078052e-21
-0.4858093192187498	1.335601339543467e-21
-0.4857482840624998	1.3300363237208517e-21
-0.4856872489062498	1.3244553495345638e-21
-0.4856262137499998	1.3188586212111931e-21
-0.4855651785937498	1.3132462646280666e-21
-0.4855041434374998	1.3076183251187057e-21
-0.4854431082812498	1.3019747677212936e-21
-0.4853820731249998	1.2963154807925385e-21
-0.4853210379687498	1.2906402813454846e-21
-0.4852600028124998	1.2849489218371267e-21
-0.4851989676562498	1.2792411002091446e-21
-0.4851379324999998	1.2735164731239839e-21
-0.4850768973437498	1.2677746697584817e-21
-0.4850158621874998	1.262015304405914e-21
-0.4849548270312498	1.2562379891852536e-21
-0.4848937918749998	1.2504423481777355e-21
-0.4848327567187498	1.2446280327109413e-21
-0.4847717215624998	1.2387947362756228e-21
-0.4847106864062498	1.2329422060407913e-21
-0.4846496512499998	1.2270702507398938e-21
-0.4845886160937498	1.221178747695832e-21
-0.4845275809374998	1.2152676481118643e-21
-0.4844665457812498	1.2093369791453835e-21
-0.4844055106249998	1.203386845066325e-21
-0.4843444754687498	1.1974174275139755e-21
-0.4842834403124998	1.1914289824932293e-21
-0.4842224051562498	1.1854218346337385e-21
-0.4841613699999998	1.1793963695424812e-21
-0.4841003348437498	1.173353024203371e-21
-0.4840392996874998	1.167292276490707e-21
-0.4839782645312498	1.1612146337155615e-21
-0.4839172293749998	1.155120619481364e-21
-0.4838561942187498	1.1490107601851793e-21
-0.4837951590624998	1.1428855722235027e-21
-0.4837341239062498	1.1367455489711301e-21
-0.4836730887499998	1.130591147647782e-21
-0.4836120535937498	1.1244227779944316e-21
-0.4835510184374998	1.118240792939212e-21
-0.4834899832812498	1.1120454805600177e-21
-0.4834289481249998	1.1058370578033054e-21
-0.4833679129687498	1.099615666093079e-21
-0.4833068778124998	1.0933813691092634e-21
-0.4832458426562498	1.087134152548147e-21
-0.4831848074999998	1.0808739255561358e-21
-0.4831237723437498	1.0746005246410075e-21
-0.4830627371874998	1.0683137201254278e-21
-0.4830017020312498	1.0620132251736727e-21
-0.4829406668749998	1.0556987077879505e-21
-0.4828796317187498	1.0493698049314499e-21
-0.4828185965624998	1.0430261366783789e-21
-0.4827575614062498	1.0366673187792611e-21
-0.4826965262499998	1.0302929749699681e-21
-0.4826354910937498	1.0239027505279736e-21
-0.4825744559374998	1.0174963253610708e-21
-0.4825134207812498	1.011073425369595e-21
-0.4824523856249998	1.004633832309571e-21
-0.4823913504687498	9.981773917900608e-22
-0.4823303153124998	9.91704019929435e-22
-0.4822692801562498	9.852137084157476e-22
-0.4822082449999998	9.787065267428704e-22
-0.4821472098437498	9.721826220051724e-22
-0.4820861746874998	9.65642216019936e-22
-0.4820251395312498	9.59085600133513e-22
-0.4819641043749998	9.525131293220113e-22
-0.4819030692187498	9.459252147774198e-22
-0.4818420340624998	9.39322314322762e-22
-0.4817809989062498	9.327049219804708e-22
-0.4817199637499998	9.260735567195575e-22
-0.4816589285937498	9.194287498907227e-22
-0.4815978934374998	9.127710315132296e-22
-0.4815368582812498	9.0610091538296e-22
-0.4814758231249998	8.994188849943614e-22
-0.4814147879687498	8.927253822993626e-22
-0.4813537528124998	8.860207974275703e-22
-0.4812927176562498	8.793054570306452e-22
-0.4812316824999998	8.725796125750514e-22
-0.4811706473437498	8.658434329968229e-22
-0.4811096121874998	8.590970029430806e-22
-0.4810485770312498	8.523403222136866e-22
-0.4809875418749998	8.455733053201975e-22
-0.4809265067187498	8.387957849966136e-22
-0.4808654715624998	8.320075201836237e-22
-0.4808044364062498	8.252082067641706e-22
-0.4807434012499998	8.183974904502401e-22
-0.4806823660937498	8.11574980225308e-22
-0.4806213309374998	8.047402624985929e-22
-0.4805602957812498	7.97892917982989e-22
-0.4804992606249998	7.910325392892991e-22
-0.4804382254687498	7.841587462255012e-22
-0.4803771903124998	7.772711996700064e-22
-0.4803161551562498	7.703696154360525e-22
-0.4802551199999998	7.634537781687356e-22
-0.4801940848437498	7.5652355347279195e-22
-0.4801330496874998	7.495788961302187e-22
-0.4800720145312498	7.426198558699686e-22
-0.4800109793749998	7.356465817152599e-22
-0.4799499442187498	7.286593234135924e-22
-0.4798889090624998	7.216584301686848e-22
-0.4798278739062498	7.14644346291402e-22
-0.4797668387499998	7.076176014635808e-22
-0.4797058035937498	7.005787965922035e-22
-0.4796447684374998	6.935285889547489e-22
-0.4795837332812498	6.864676771001065e-22
-0.4795226981249998	6.793967832040118e-22
-0.4794616629687498	6.723166315019577e-22
-0.4794006278124998	6.65227924593297e-22
-0.4793395926562498	6.581313218837367e-22
-0.4792785574999998	6.510274212798416e-22
-0.4792175223437498	6.439167430463811e-22
-0.4791564871874998	6.367997161645359e-22
-0.4790954520312498	6.296766666367845e-22
-0.4790344168749998	6.225478076197305e-22
-0.4789733817187498	6.154132334471643e-22
-0.4789123465624998	6.082729185784757e-22
-0.4788513114062498	6.011267203268986e-22
-0.4787902762499998	5.939743849935304e-22
-0.4787292410937498	5.868155580069856e-22
-0.4786682059374998	5.796497964643431e-22
-0.4786071707812498	5.724765826903792e-22
-0.4785461356249998	5.652953414450897e-22
-0.4784851004687498	5.581054619944148e-22
-0.4784240653124998	5.509063209214805e-22
-0.4783630301562498	5.436973037983483e-22
-0.4783019949999998	5.364778283711657e-22
-0.4782409598437498	5.292473687912228e-22
-0.4781799246874998	5.220054770271648e-22
-0.4781188895312498	5.147518000774242e-22
-0.4780578543749998	5.074860942426779e-22
-0.4779968192187498	5.002082360812388e-22
-0.4779357840624998	4.9291822838863775e-22
-0.4778747489062498	4.856162011503178e-22
-0.4778137137499998	4.783024080837981e-22
-0.4777526785937498	4.709772196600587e-22
-0.4776916434374998	4.636411131966609e-22
-0.4776306082812498	4.562946594033695e-22
-0.4775695731249998	4.489385050983798e-22
-0.4775085379687498	4.415733526716297e-22
-0.4774475028124998	4.341999372451769e-22
-0.4773864676562498	4.2681900182091005e-22
-0.4773254324999998	4.194312712826221e-22
-0.4772643973437498	4.120374280249273e-22
-0.4772033621874998	4.046380890701918e-22
-0.4771423270312498	3.972337825370197e-22
-0.4770812918749998	3.898249271769903e-22
-0.4770202567187498	3.8241182010105555e-22
-0.4769592215624998	3.7499463064501254e-22
-0.4768981864062498	3.675733957228416e-22
-0.4768371512499998	3.6014802500133487e-22
-0.4767761160937498	3.5271834039803267e-22
-0.4767150809374998	3.4528414945900895e-22
-0.4766540457812498	3.3784531139763657e-22
-0.4765930106249998	3.3040177032378776e-22
-0.4765319754687498	3.2295356397484833e-22
-0.4764709403124998	3.155008182933875e-22
-0.4764099051562498	3.0804373438154e-22
-0.4763488699999998	3.0058257230413646e-22
-0.4762878348437498	2.931176318407317e-22
-0.4762267996874998	2.8564923077876447e-22
-0.4761657645312498	2.781776831641963e-22
-0.4761047293749998	2.707032791904315e-22
-0.4760436942187498	2.6322626673240204e-22
-0.4759826590624998	2.557468341226645e-22
-0.4759216239062498	2.4826509543432157e-22
-0.4758605887499998	2.4078108056451607e-22
-0.4757995535937498	2.3329473093904106e-22
-0.4757385184374998	2.258058993876793e-22
-0.4756774832812498	2.183143527645192e-22
-0.4756164481249998	2.1081977781742359e-22
-0.4755554129687498	2.0332179106092443e-22
-0.4754943778124998	1.9581995151767375e-22
-0.4754333426562498	1.883137747824972e-22
-0.4753723074999998	1.8080274963315853e-22
-0.4753112723437498	1.7328635781198604e-22
-0.4752502371874998	1.6576409352454806e-22
-0.4751892020312498	1.5823548086810125e-22
-0.4751281668749998	1.5070009108380374e-22
-0.4750671317187498	1.4315755966241942e-22
-0.4750060965624998	1.3560760113180374e-22
-0.4749450614062498	1.2805002123450559e-22
-0.4748840262499998	1.2048472710039197e-22
-0.4748229910937498	1.1291173367314114e-22
-0.4747619559374998	1.0533116500256232e-22
-0.4747009207812498	9.774325304109125e-23
-0.4746398856249998	9.014833536929525e-23
-0.4745788504687498	8.254684792196949e-23
-0.4745178153124998	7.493931252673856e-23
-0.4744567801562498	6.732632450344277e-23
-0.4743957449999998	5.970854003509602e-23
-0.4743347098437498	5.208666065056946e-23
-0.4742736746874998	4.4461415883341824e-23
-0.4742126395312498	3.683354450388833e-23
-0.4741516043749998	2.9203775694055394e-23
-0.4740905692187498	2.1572811564544074e-23
-0.4740295340624998	1.3941309732001718e-23
-0.4739684989062498	6.309866902466867e-24
-0.4739074637499998	-1.320995606817408e-24
-0.4738464285937498	-8.950844302921256e-24
-0.4737853934374998	-1.6579341563554503e-23
-0.4737243582812498	-2.4206249820604943e-23
-0.4736633231249998	-3.183143472691355e-23
-0.4736022879687498	-3.9454867090910386e-23
-0.4735412528124998	-4.707662108856149e-23
-0.4734802176562498	-5.469686714410317e-23
-0.4734191824999998	-6.231586168195524e-23
-0.4733581473437498	-6.993393670529763e-23
-0.4732971121874998	-7.75514877388313e-23
-0.4732360770312498	-8.516895834844078e-23
-0.4731750418749998	-9.278682274348405e-23
-0.4731140067187498	-1.004055684034923e-22
-0.4730529715624998	-1.0802567994693658e-22
-0.4729919364062498	-1.1564762349455931e-22
-0.4729309012499998	-1.232718295022902e-22
-0.4728698660937498	-1.3089867543572377e-22
-0.4728088309374998	-1.3852847153670992e-22
-0.4727477957812498	-1.4616144940611472e-22
-0.4726867606249998	-1.5379775227932757e-22
-0.4726257254687498	-1.6143742854572149e-22
-0.4725646903124998	-1.6908042862004673e-22
-0.4725036551562498	-1.7672660356172305e-22
-0.4724426199999998	-1.8437570583160347e-22
-0.4723815848437498	-1.920273930881347e-22
-0.4723205496874998	-1.996812349698429e-22
-0.4722595145312498	-2.0733672207648166e-22
-0.4721984793749998	-2.149932765978942e-22
-0.4721374442187498	-2.2265026562558984e-22
-0.4720764090624998	-2.303070175680818e-22
-0.4720153739062498	-2.3796283946791122e-22
-0.4719543387499998	-2.456170324944962e-22
-0.4718933035937498	-2.5326890640941283e-22
-0.4718322684374998	-2.60917795051278e-22
-0.4717712332812498	-2.685630710913005e-22
-0.4717101981249998	-2.7620415869549807e-22
-0.4716491629687498	-2.83840545009161e-22
-0.4715881278124998	-2.9147178986623297e-22
-0.4715270926562498	-2.990975329197845e-22
-0.4714660574999998	-3.0671749827308562e-22
