Time	Frequency
-0.5000182760624998	-1.065300265816197e-21
-0.4999572409062498	-1.0646143944847567e-21
-0.4998962057499998	-1.063910014190508e-21
-0.4998351705937498	-1.0631870968753802e-21
-0.4997741354374998	-1.0624456214831379e-21
-0.4997131002812498	-1.061685576249857e-21
-0.4996520651249998	-1.060906959967329e-21
-0.4995910299687498	-1.0601097815982094e-21
-0.4995299948124998	-1.0592940592684578e-21
-0.4994689596562498	-1.0584598194359065e-21
-0.4994079244999998	-1.0576070960249885e-21
-0.4993468893437498	-1.056735928978222e-21
-0.4992858541874998	-1.0558463622537178e-21
-0.4992248190312498	-1.0549384419009963e-21
-0.4991637838749998	-1.0540122142757188e-21
-0.4991027487187498	-1.0530677242078993e-21
-0.4990417135624998	-1.0521050133745337e-21
-0.4989806784062498	-1.0511241184504188e-21
-0.4989196432499998	-1.050125068892015e-21
-0.4988586080937498	-1.0491078858029249e-21
-0.4987975729374998	-1.0480725825217134e-21
-0.4987365377812498	-1.0470191656987542e-21
-0.4986755026249998	-1.045947635997219e-21
-0.4986144674687498	-1.0448579886333252e-21
-0.4985534323124998	-1.0437502143554586e-21
-0.4984923971562498	-1.0426243010896627e-21
-0.4984313619999998	-1.0414802355962065e-21
-0.4983703268437498	-1.0403180047742324e-21
-0.4983092916874998	-1.0391375970372747e-21
-0.4982482565312498	-1.0379390039696589e-21
-0.4981872213749998	-1.0367222217962457e-21
-0.4981261862187498	-1.035487252196617e-21
-0.4980651510624998	-1.0342341029502753e-21
-0.4980041159062498	-1.0329627885095146e-21
-0.4979430807499998	-1.0316733296691058e-21
-0.4978820455937498	-1.0303657525572865e-21
-0.4978210104374998	-1.0290400875115761e-21
-0.4977599752812498	-1.0276963678159707e-21
-0.4976989401249998	-1.0263346286761263e-21
-0.4976379049687498	-1.024954906619387e-21
-0.4975768698124998	-1.0235572389495627e-21
-0.4975158346562498	-1.0221416628866775e-21
-0.4974547994999998	-1.020708213906603e-21
-0.4973937643437498	-1.0192569236564092e-21
-0.4973327291874998	-1.0177878191362146e-21
-0.4972716940312498	-1.0163009236197089e-21
-0.4972106588749998	-1.0147962576149946e-21
-0.4971496237187498	-1.0132738387763043e-21
-0.4970885885624998	-1.0117336818369515e-21
-0.4970275534062498	-1.0101757993199568e-21
-0.4969665182499998	-1.0086002022288604e-21
-0.4969054830937498	-1.0070069006413492e-21
-0.4968444479374998	-1.0053959048198784e-21
-0.4967834127812498	-1.0037672264791374e-21
-0.4967223776249998	-1.0021208797861385e-21
-0.4966613424687498	-1.0004568822706029e-21
-0.4966003073124998	-9.987752554324978e-22
-0.4965392721562498	-9.970760248342365e-22
-0.4964782369999998	-9.95359219781907e-22
-0.4964172018437498	-9.936248725308169e-22
-0.4963561666874998	-9.91873017387098e-22
-0.4962951315312498	-9.901036902974094e-22
-0.4962340963749998	-9.883169286400343e-22
-0.4961730612187498	-9.865127702424254e-22
-0.4961120260624998	-9.846912517933208e-22
-0.4960509909062498	-9.8285240802288e-22
-0.4959899557499998	-9.809962715341565e-22
-0.4959289205937498	-9.791228720944462e-22
-0.4958678854374998	-9.772322358201624e-22
-0.4958068502812498	-9.753243853287887e-22
-0.4957458151249998	-9.733993404183484e-22
-0.4956847799687498	-9.714571184411875e-22
-0.4956237448124998	-9.69497734744133e-22
-0.4955627096562498	-9.675212034728517e-22
-0.4955016744999998	-9.655275378667825e-22
-0.4954406393437498	-9.63516750583215e-22
-0.4953796041874998	-9.614888560129949e-22
-0.4953185690312498	-9.594438733700138e-22
-0.4952575338749998	-9.573818275541592e-22
-0.4951964987187498	-9.553027482818425e-22
-0.4951354635624998	-9.532066699743177e-22
-0.4950744284062498	-9.510936326225267e-22
-0.4950133932499998	-9.489636822862453e-22
-0.4949523580937498	-9.468168708357193e-22
-0.4948913229374998	-9.446532553489939e-22
-0.4948302877812498	-9.424728969404551e-22
-0.4947692526249998	-9.402758585357507e-22
-0.4947082174687498	-9.380622025882052e-22
-0.4946471823124998	-9.358319895652797e-22
-0.4945861471562498	-9.335852766658511e-22
-0.4945251119999998	-9.313221168501467e-22
-0.4944640768437498	-9.290425580336967e-22
-0.4944030416874998	-9.267466418447549e-22
-0.4943420065312498	-9.244344029234825e-22
-0.4942809713749998	-9.221058693657908e-22
-0.4942199362187498	-9.197610627426275e-22
-0.4941589010624998	-9.173999976495144e-22
-0.4940978659062498	-9.150226833710235e-22
-0.4940368307499998	-9.12629126955055e-22
-0.4939757955937498	-9.102193345782758e-22
-0.4939147604374998	-9.077933124567818e-22
-0.4938537252812498	-9.053510690363032e-22
-0.4937926901249998	-9.02892616942253e-22
-0.4937316549687498	-9.004179743884129e-22
-0.4936706198124998	-8.979271667062323e-22
-0.4936095846562498	-8.954202275207903e-22
-0.4935485494999998	-8.928971991104796e-22
-0.4934875143437498	-8.90358132146973e-22
-0.4934264791874998	-8.878030852360336e-22
-0.4933654440312498	-8.852321238264776e-22
-0.4933044088749998	-8.826453185171622e-22
-0.4932433737187498	-8.800427440564748e-22
-0.4931823385624998	-8.77424478516825e-22
-0.4931213034062498	-8.747906009778174e-22
-0.4930602682499998	-8.721411885739593e-22
-0.4929992330937498	-8.694763144261233e-22
-0.4929381979374998	-8.667960461859363e-22
-0.4928771627812498	-8.641004448600856e-22
-0.4928161276249998	-8.613895639953345e-22
-0.4927550924687498	-8.586634494529004e-22
-0.4926940573124998	-8.559221395080523e-22
-0.4926330221562498	-8.53165664322984e-22
-0.4925719869999998	-8.503940458141906e-22
-0.4925109518437498	-8.476072993864772e-22
-0.4924499166874998	-8.4480543628055635e-22
-0.4923888815312498	-8.419884654525321e-22
-0.4923278463749998	-8.391563952795944e-22
-0.4922668112187498	-8.3630923531567e-22
-0.4922057760624998	-8.33446999166476e-22
-0.4921447409062498	-8.30569708324089e-22
-0.4920837057499998	-8.276773942303353e-22
-0.4920226705937498	-8.247700974073246e-22
-0.4919616354374998	-8.218478663057143e-22
-0.4919006002812498	-8.189107580595593e-22
-0.4918395651249998	-8.1595883905815135e-22
-0.4917785299687498	-8.129921833839157e-22
-0.4917174948124998	-8.100108702682086e-22
-0.4916564596562498	-8.070149813538063e-22
-0.4915954244999998	-8.0400459783635145e-22
-0.4915343893437498	-8.009797980373358e-22
-0.4914733541874998	-7.979406555397227e-22
-0.4914123190312498	-7.94887238154697e-22
-0.4913512838749998	-7.91819607590165e-22
-0.4912902487187498	-7.887378185198401e-22
-0.4912292135624998	-7.85641917890121e-22
-0.4911681784062498	-7.825319462492187e-22
-0.4911071432499998	-7.794079397023814e-22
-0.4910461080937498	-7.76269931393148e-22
-0.4909850729374998	-7.731179532537004e-22
-0.4909240377812498	-7.699520371290769e-22
-0.4908630026249998	-7.667722150321548e-22
-0.4908019674687498	-7.635785208799992e-22
-0.4907409323124998	-7.603709934884937e-22
-0.4906798971562498	-7.571496782752424e-22
-0.4906188619999998	-7.539146276892421e-22
-0.4905578268437498	-7.506659010404257e-22
-0.4904967916874998	-7.474035640599447e-22
-0.4904357565312498	-7.441276882012958e-22
-0.4903747213749998	-7.408383485956167e-22
-0.4903136862187498	-7.375356216300303e-22
-0.4902526510624998	-7.342195834536085e-22
-0.4901916159062498	-7.308903085283659e-22
-0.4901305807499998	-7.275478678911019e-22
-0.4900695455937498	-7.241923276183429e-22
-0.4900085104374998	-7.208237475376982e-22
-0.4899474752812498	-7.174421800479646e-22
-0.4898864401249998	-7.1404766884168865e-22
-0.4898254049687498	-7.106402483322604e-22
-0.4897643698124998	-7.072199457713518e-22
-0.4897033346562498	-7.037867842882258e-22
-0.4896422994999998	-7.003407833595763e-22
-0.4895812643437498	-6.968819595084639e-22
-0.4895202291874998	-6.934103307647689e-22
-0.4894591940312498	-6.8992592201318655e-22
-0.4893981588749998	-6.864287677352286e-22
-0.4893371237187498	-6.829189131186779e-22
-0.4892760885624998	-6.793964154513226e-22
-0.4892150534062498	-6.758613452190297e-22
-0.4891540182499998	-6.723137859879264e-22
-0.4890929830937498	-6.687538335818475e-22
-0.4890319479374998	-6.651815949518966e-22
-0.4889709127812498	-6.615971861922508e-22
-0.4889098776249998	-6.58000728914113e-22
-0.4888488424687498	-6.543923454597105e-22
-0.4887878073124998	-6.507721549276136e-22
-0.4887267721562498	-6.471402694271396e-22
-0.4886657369999998	-6.434967888845753e-22
-0.4886047018437498	-6.398417970044883e-22
-0.4885436666874998	-6.361753598341864e-22
-0.4884826315312498	-6.324975243437848e-22
-0.4884215963749998	-6.288083175924503e-22
-0.4883605612187498	-6.251077490618031e-22
-0.4882995260624998	-6.2139581417023745e-22
-0.4882384909062498	-6.17672496408049e-22
-0.4881774557499998	-6.139377705067748e-22
-0.4881164205937498	-6.101916087797308e-22
-0.4880553854374998	-6.06433988225447e-22
-0.4879943502812498	-6.026648959501335e-22
-0.4879333151249998	-5.98884333142487e-22
-0.4878722799687498	-5.950923192238747e-22
-0.4878112448124998	-5.912888964896105e-22
-0.4877502096562498	-5.874741326788655e-22
-0.4876891744999998	-5.836481200940669e-22
-0.4876281393437498	-5.798109730720703e-22
-0.4875671041874998	-5.759628258144661e-22
-0.4875060690312498	-5.721038297736584e-22
-0.4874450338749998	-5.682341484453719e-22
-0.4873839987187498	-5.643539510106778e-22
-0.4873229635624998	-5.604634069536122e-22
-0.4872619284062498	-5.565626798592302e-22
-0.4872008932499998	-5.526519197558934e-22
-0.4871398580937498	-5.487312573888918e-22
-0.4870788229374998	-5.448008016253352e-22
-0.4870177877812498	-5.408606373162315e-22
-0.4869567526249998	-5.36910823403537e-22
-0.4868957174687498	-5.329513937226554e-22
-0.4868346823124998	-5.289823601861885e-22
-0.4867736471562498	-5.250037165935706e-22
-0.4867126119999998	-5.2101544290996225e-22
-0.4866515768437498	-5.170175099100124e-22
-0.4865905416874998	-5.130098845446478e-22
-0.4865295065312498	-5.089925374576318e-22
-0.4864684713749998	-5.049654508379398e-22
-0.4864074362187498	-5.009286229484786e-22
-0.4863464010624998	-4.968820706847749e-22
-0.4862853659062498	-4.928258328606874e-22
-0.4862243307499998	-4.887599728897837e-22
-0.4861632955937498	-4.846845791725849e-22
-0.4861022604374998	-4.805997634687848e-22
-0.4860412252812498	-4.765056577414298e-22
-0.4859801901249998	-4.724024098707878e-22
-0.4859191549687498	-4.682901794524336e-22
-0.4858581198124998	-4.641691333001309e-22
-0.4857970846562498	-4.600394390719201e-22
-0.4857360494999998	-4.559012583929115e-22
-0.4856750143437498	-4.517547416203295e-22
-0.4856139791874998	-4.476000243999836e-22
-0.4855529440312498	-4.434372243640661e-22
-0.4854919088749998	-4.392664369333561e-22
-0.4854308737187498	-4.35087732974044e-22
-0.4853698385624998	-4.309011603285324e-22
-0.4853088034062498	-4.267067468688491e-22
-0.4852477682499998	-4.2250450292972784e-22
-0.4851867330937498	-4.182944236940871e-22
-0.4851256979374998	-4.1407649331854524e-22
-0.4850646627812498	-4.098506916030269e-22
-0.4850036276249998	-4.0561700039099465e-22
-0.4849425924687498	-4.0137540723848875e-22
-0.4848815573124998	-3.9712590864533416e-22
-0.4848205221562498	-3.9286851434032773e-22
-0.4847594869999998	-3.8860325087278247e-22
-0.4846984518437498	-3.843301639508611e-22
-0.4846374166874998	-3.800493199208468e-22
-0.4845763815312498	-3.75760805619433e-22
-0.4845153463749998	-3.7146472676152093e-22
-0.4844543112187498	-3.6716120532632503e-22
-0.4843932760624998	-3.628503756860934e-22
-0.4843322409062498	-3.5853238130765355e-22
-0.4842712057499998	-3.542073719074821e-22
-0.4842101705937498	-3.4987549834354573e-22
-0.4841491354374998	-3.455369071960395e-22
-0.4840881002812498	-3.411917376333131e-22
-0.4840270651249998	-3.368401186056768e-22
-0.4839660299687498	-3.3248216591866533e-22
-0.4839049948124998	-3.2811798110240015e-22
-0.4838439596562498	-3.2374765096352974e-22
-0.4837829244999998	-3.1937124658100218e-22
-0.4837218893437498	-3.149888234925084e-22
-0.4836608541874998	-3.106004241042055e-22
-0.4835998190312498	-3.0620608067758354e-22
-0.4835387838749998	-3.01805817244863e-22
-0.4834777487187498	-2.9739965159864635e-22
-0.4834167135624998	-2.9298759782686205e-22
-0.4833556784062498	-2.885696686264816e-22
-0.4832946432499998	-2.841458788725324e-22
-0.4832336080937498	-2.7971625087895636e-22
-0.4831725729374998	-2.7528081848651524e-22
-0.4831115377812498	-2.708396276296861e-22
-0.4830505026249998	-2.6639273559144653e-22
-0.4829894674687498	-2.6194021190076286e-22
-0.4829284323124998	-2.5748213873755946e-22
-0.4828673971562498	-2.5301860948900384e-22
-0.4828063619999998	-2.4854972820913964e-22
-0.4827453268437498	-2.440756093785318e-22
-0.4826842916874998	-2.395963753482945e-22
-0.4826232565312498	-2.351121530769495e-22
-0.4825622213749998	-2.306230714578351e-22
-0.4825011862187498	-2.261292581928374e-22
-0.4824401510624998	-2.216308372029628e-22
-0.4823791159062498	-2.171279272727907e-22
-0.4823180807499998	-2.1262064013489696e-22
-0.4822570455937498	-2.0810907753872324e-22
-0.4821960104374998	-2.0359332987194963e-22
-0.4821349752812498	-1.9907347771319862e-22
-0.4820739401249998	-1.9454959382485722e-22
-0.4820129049687498	-1.900217437063643e-22
-0.4819518698124998	-1.8548998546177442e-22
-0.4818908346562498	-1.8095436987342767e-22
-0.4818297994999998	-1.7641494110538401e-22
-0.4817687643437498	-1.7187173887729418e-22
-0.4817077291874998	-1.6732480212292499e-22
-0.4816466940312498	-1.6277417115635508e-22
-0.4815856588749998	-1.5821988766703856e-22
-0.4815246237187498	-1.5366199605549033e-22
-0.4814635885624998	-1.4910054643254652e-22
-0.4814025534062498	-1.4453559714569579e-22
-0.4813415182499998	-1.3996721589941854e-22
-0.4812804830937498	-1.3539547884117237e-22
-0.4812194479374998	-1.3082046902248074e-22
-0.4811584127812498	-1.2624227617506022e-22
-0.4810973776249998	-1.216609965106697e-22
-0.4810363424687498	-1.1707673122613102e-22
-0.4809753073124998	-1.1248958522559632e-22
-0.4809142721562498	-1.0789966678184122e-22
-0.4808532369999998	-1.0330708677146286e-22
-0.4807922018437498	-9.871195733998573e-23
-0.4807311666874998	-9.411439032624904e-23
-0.4806701315312498	-8.95144954897876e-23
-0.4806090963749998	-8.491237981357807e-23
-0.4805480612187498	-8.03081474284226e-23
-0.4804870260624998	-7.570189839205777e-23
-0.4804259909062498	-7.109372680742762e-23
-0.4803649557499998	-6.648372005570223e-23
-0.4803039205937498	-6.187195972592608e-23
-0.4802428854374998	-5.725852278556556e-23
-0.4801818502812498	-5.264348254777594e-23
-0.4801208151249998	-4.802690967915418e-23
-0.4800597799687498	-4.3408872042356535e-23
-0.4799987448124998	-3.8789434409547863e-23
-0.4799377096562498	-3.416865965966529e-23
-0.4798766744999998	-2.954660983362786e-23
-0.4798156393437498	-2.492334609403417e-23
-0.4797546041874998	-2.029892872906628e-23
-0.4796935690312498	-1.5673417579141897e-23
-0.4796325338749998	-1.1046872913470489e-23
-0.4795714987187498	-6.419356724578944e-24
-0.4795104635624998	-1.7909336915585457e-24
-0.4794494284062498	2.838327833131165e-24
-0.4793883932499998	7.468354337799195e-24
-0.4793273580937498	1.2099066278249142e-23
-0.4792663229374998	1.6730378254688332e-23
-0.4792052877812498	2.136220005049879e-23
-0.4791442526249998	2.599443788350702e-23
-0.4790832174687498	3.062699407703091e-23
-0.4790221823124998	3.525976583534257e-23
-0.4789611471562498	3.989264611807594e-23
-0.4789001119999998	4.452552686771157e-23
-0.4788390768437498	4.915830203640906e-23
-0.4787780416874998	5.379086863130627e-23
-0.4787170065312498	5.842312663846991e-23
-0.4786559713749998	6.305498012394539e-23
-0.4785949362187498	6.76863393373662e-23
-0.4785339010624998	7.23171215387446e-23
-0.4784728659062498	7.694725081727314e-23
-0.4784118307499998	8.15766581099506e-23
-0.4783507955937498	8.620528095887925e-23
-0.4782897604374998	9.083306279858786e-23
-0.4782287252812498	9.545995246332628e-23
-0.4781676901249998	1.0008590336209531e-22
-0.4781066549687498	1.0471087027046274e-22
-0.4780456198124998	1.0933480511561276e-22
-0.4779845846562498	1.1395765452886556e-22
-0.4779235494999998	1.1857935838881599e-22
-0.4778625143437498	1.2319984859224862e-22
-0.4778014791874998	1.2781904809374081e-22
-0.4777404440312498	1.3243686990288222e-22
-0.4776794088749998	1.3705321639912878e-22
-0.4776183737187498	1.4166797950160957e-22
-0.4775573385624998	1.4628104144903963e-22
-0.4774963034062498	1.5089227628873995e-22
-0.4774352682499998	1.555015527674426e-22
-0.4773742330937498	1.601087371664632e-22
-0.4773131979374998	1.6471369541440376e-22
-0.4772521627812498	1.6931629612122026e-22
-0.4771911276249998	1.739164139321107e-22
-0.4771300924687498	1.7851393182486516e-22
-0.4770690573124998	1.831087427106701e-22
-0.4770080221562498	1.8770075097940063e-22
-0.4769469869999998	1.9228987437159113e-22
-0.4768859518437498	1.9687604535436093e-22
-0.4768249166874998	2.0145920988825153e-22
-0.4767638815312498	2.0603932415777783e-22
-0.4767028463749998	2.1061635258863887e-22
-0.4766418112187498	2.15190267081014e-22
-0.4765807760624998	2.197610448897853e-22
-0.4765197409062498	2.2432866533828937e-22
-0.4764587057499998	2.2889310656655927e-22
-0.4763976705937498	2.3345434179427645e-22
-0.4763366354374998	2.380123352048151e-22
-0.4762756002812498	2.4256703934786445e-22
-0.4762145651249998	2.471183940626747e-22
-0.4761535299687498	2.516663251296442e-22
-0.4760924948124998	2.562107429138924e-22
-0.4760314596562498	2.607515423708096e-22
-0.4759704244999998	2.6528860461686415e-22
-0.4759093893437498	2.6982179938994723e-22
-0.4758483541874998	2.7435098741454325e-22
-0.4757873190312498	2.788760223274112e-22
-0.4757262838749998	2.833967529134298e-22
-0.4756652487187498	2.879130258700162e-22
-0.4756042135624998	2.9242468878906222e-22
-0.4755431784062498	2.9693159380873825e-22
-0.4754821432499998	3.0143360175134283e-22
-0.4754211080937498	3.0593058573176938e-22
-0.4753600729374998	3.1042243425460605e-22
-0.4752990377812498	3.149090534729054e-22
-0.4752380026249998	3.1939036763023073e-22
-0.4751769674687498	3.2386631854943393e-22
-0.4751159323124998	3.2833686520090097e-22
-0.4750548971562498	3.328019825905122e-22
-0.4749938619999998	3.3726165914400724e-22
-0.4749328268437498	3.4171589321014344e-22
-0.4748717916874998	3.4616468984787136e-22
-0.4748107565312498	3.5060805735302203e-22
-0.4747497213749998	3.5504600212633354e-22
-0.4746886862187498	3.5947852252911537e-22
-0.4746276510624998	3.639056038822171e-22
-0.4745666159062498	3.6832721509848086e-22
-0.4745055807499998	3.7274330604594567e-22
-0.4744445455937498	3.7715380624200205e-22
-0.4743835104374998	3.815586244896145e-22
-0.4743224752812498	3.8595764765935003e-22
-0.4742614401249998	3.9035074061338355e-22
-0.4742004049687498	3.9473774920336274e-22
-0.4741393698124998	3.9911850438246313e-22
-0.4740783346562498	4.03492826506726e-22
-0.4740172994999998	4.07860529799012e-22
-0.4739562643437498	4.122214266935903e-22
-0.4738952291874998	4.16575333104557e-22
-0.4738341940312498	4.2092207474596196e-22
-0.4737731588749998	4.252614928772077e-22
-0.4737121237187498	4.295934488340657e-22
-0.4736510885624998	4.339178279796041e-22
-0.4735900534062498	4.382345424988689e-22
-0.4735290182499998	4.425435321332828e-22
-0.4734679830937498	4.468447633580221e-22
-0.4734069479374998	4.511382271852079e-22
-0.4733459127812498	4.554239355933161e-22
-0.4732848776249998	4.597019173710964e-22
-0.4732238424687498	4.639722135803625e-22
-0.4731628073124998	4.682348719591738e-22
-0.4731017721562498	4.724899404378651e-22
-0.4730407369999998	4.767374609661951e-22
-0.4729797018437498	4.809774635996337e-22
-0.4729186666874998	4.852099603297077e-22
-0.4728576315312498	4.894349397190644e-22
-0.4727965963749998	4.936523631567261e-22
-0.4727355612187498	4.978621624903425e-22
-0.4726745260624998	5.020642392815035e-22
-0.4726134909062498	5.062584659990245e-22
-0.4725524557499998	5.104446885439038e-22
-0.4724914205937498	5.146227297819196e-22
-0.4724303854374998	5.187923941388162e-22
-0.4723693502812498	5.229534727830745e-22
-0.4723083151249998	5.271057493044299e-22
-0.4722472799687498	5.312490059875129e-22
-0.4721862448124998	5.353830305999773e-22
-0.4721252096562498	5.395076226638679e-22
-0.4720641744999998	5.436225970026505e-22
-0.4720031393437498	5.477277836224783e-22
-0.4719421041874998	5.518230216301376e-22
-0.4718810690312498	5.559081450499258e-22
-0.4718200338749998	5.599829704778351e-22
-0.4717589987187498	5.640473015433886e-22
