Time	Frequency
-0.5000610279687496	-0.7518932837707224
-0.4999999928124996	-0.7511891673543648
-0.4999389576562496	-0.7504745201553011
-0.4998779224999996	-0.7497493349978857
-0.4998168873437496	-0.7490136043381812
-0.4997558521874996	-0.7482673205450019
-0.4996948170312496	-0.7475104763109073
-0.4996337818749996	-0.7467430651196693
-0.4995727467187496	-0.74596508158662
-0.4995117115624996	-0.7451765217464271
-0.4994506764062496	-0.7443773833813405
-0.4993896412499996	-0.743567666313079
-0.4993286060937496	-0.7427473725914367
-0.4992675709374996	-0.7419165065543639
-0.4992065357812496	-0.7410750748511858
-0.4991455006249996	-0.7402230866059311
-0.4990844654687496	-0.7393605536015145
-0.4990234303124996	-0.7384874901461628
-0.4989623951562496	-0.7376039126832967
-0.4989013599999996	-0.7367098395382726
-0.4988403248437496	-0.73580529081634
-0.4987792896874996	-0.7348902882027962
-0.4987182545312496	-0.7339648546745758
-0.4986572193749996	-0.7330290141617473
-0.4985961842187496	-0.7320827911011185
-0.4985351490624996	-0.7311262099852137
-0.4984741139062496	-0.7301592950569648
-0.4984130787499996	-0.7291820700301112
-0.4983520435937496	-0.7281945576539518
-0.4982910084374996	-0.7271967792994123
-0.4982299732812496	-0.7261887547189843
-0.4981689381249996	-0.7251705018258542
-0.4981079029687496	-0.7241420364443943
-0.4980468678124996	-0.7231033721553585
-0.4979858326562496	-0.7220545203053031
-0.4979247974999996	-0.7209954900996615
-0.4978637623437496	-0.7199262886691362
-0.4978027271874996	-0.7188469211419286
-0.4977416920312496	-0.7177573907812345
-0.4976806568749996	-0.7166576992437937
-0.4976196217187496	-0.7155478469674592
-0.4975585865624996	-0.7144278335242086
-0.4974975514062496	-0.713297657927772
-0.4974365162499996	-0.7121573190513122
-0.4973754810937496	-0.7110068160377155
-0.4973144459374996	-0.709846148609992
-0.4972534107812496	-0.7086753174797926
-0.4971923756249996	-0.7074943248251658
-0.4971313404687496	-0.7063031746432293
-0.4970703053124996	-0.7051018729989558
-0.4970092701562496	-0.703890428229412
-0.4969482349999996	-0.7026688511257574
-0.4968871998437496	-0.7014371550802326
-0.4968261646874996	-0.7001953561269711
-0.4967651295312496	-0.6989434728926217
-0.4967040943749996	-0.6976815265201007
-0.4966430592187496	-0.6964095405482342
-0.4965820240624996	-0.6951275407577422
-0.4965209889062496	-0.6938355549220698
-0.4964599537499996	-0.6925336123073026
-0.4963989185937496	-0.6912217430865231
-0.4963378834374996	-0.6898999779553718
-0.4962768482812496	-0.6885683478390588
-0.4962158131249996	-0.6872268834308503
-0.4961547779687496	-0.6858756146216253
-0.4960937428124996	-0.6845145700621074
-0.4960327076562496	-0.6831437768681287
-0.4959716724999996	-0.681763260290029
-0.4959106373437496	-0.6803730432912607
-0.4958496021874996	-0.6789731461811841
-0.4957885670312496	-0.6775635864656208
-0.4957275318749996	-0.6761443788715674
-0.4956664967187496	-0.6747155353283858
-0.4956054615624996	-0.6732770649151972
-0.4955444264062496	-0.6718289739985408
-0.4954833912499996	-0.6703712664258092
-0.4954223560937496	-0.6689039435306525
-0.4953613209374996	-0.6674270042438135
-0.4953002857812496	-0.665940445682058
-0.4952392506249996	-0.6644442639471879
-0.4951782154687496	-0.6629384546287601
-0.4951171803124996	-0.6614230131363547
-0.4950561451562496	-0.6598979352640911
-0.4949951099999996	-0.6583632178828268
-0.4949340748437496	-0.6568188595097726
-0.4948730396874996	-0.6552648607566269
-0.4948120045312496	-0.6537012247676116
-0.4947509693749996	-0.6521279576960411
-0.4946899342187496	-0.6505450691170932
-0.4946288990624996	-0.6489525723972199
-0.4945678639062496	-0.6473504851002994
-0.4945068287499996	-0.6457388291726148
-0.4944457935937496	-0.6441176308267872
-0.4943847584374996	-0.6424869204875062
-0.4943237232812496	-0.6408467328292725
-0.4942626881249996	-0.6391971066157082
-0.4942016529687496	-0.6375380843079488
-0.4941406178124996	-0.6358697115160961
-0.4940795826562496	-0.6341920363573527
-0.4940185474999996	-0.6325051089334724
-0.4939575123437496	-0.6308089809251601
-0.4938964771874996	-0.6291037050298732
-0.4938354420312496	-0.6273893341600132
-0.4937744068749996	-0.6256659205594246
-0.4937133717187496	-0.6239335150757389
-0.4936523365624996	-0.6221921665310963
-0.4935913014062496	-0.6204419209301989
-0.4935302662499996	-0.618682820680257
-0.4934692310937496	-0.6169149040403265
-0.4934081959374996	-0.6151382046625363
-0.4933471607812496	-0.6133527512943396
-0.4932861256249996	-0.6115585676858195
-0.4932250904687496	-0.6097556723878839
-0.4931640553124996	-0.6079440785330799
-0.4931030201562496	-0.6061237940062356
-0.4930419849999996	-0.604294821803558
-0.4929809498437496	-0.6024571603272448
-0.4929199146874996	-0.6006108039538939
-0.4928588795312496	-0.5987557438566634
-0.4927978443749996	-0.596891968643571
-0.4927368092187496	-0.5950194649038556
-0.4926757740624996	-0.5931382179686375
-0.4926147389062496	-0.5912482128243374
-0.4925537037499996	-0.5893494350752889
-0.4924926685937496	-0.5874418719702083
-0.4924316334374996	-0.585525513384012
-0.4923705982812496	-0.5836003526446373
-0.4923095631249996	-0.5816663872566279
-0.4922485279687496	-0.5797236196541385
-0.4921874928124996	-0.5777720580552888
-0.4921264576562496	-0.5758117172389153
-0.4920654224999996	-0.5738426189939501
-0.4920043873437496	-0.5718647922273601
-0.4919433521874996	-0.5698782728008421
-0.4918823170312496	-0.5678831032672591
-0.4918212818749996	-0.565879332818001
-0.4917602467187496	-0.5638670172631819
-0.4916992115624996	-0.5618462185151405
-0.4916381764062496	-0.5598170036409815
-0.4915771412499996	-0.5577794438816526
-0.4915161060937496	-0.5557336136658138
-0.4914550709374996	-0.5536795894663229
-0.4913940357812496	-0.551617448499518
-0.4913330006249996	-0.5495472674048708
-0.4912719654687496	-0.547469121093932
-0.4912109303124996	-0.5453830817047989
-0.4911498951562496	-0.5432892173778557
-0.4910888599999996	-0.5411875909363154
-0.4910278248437496	-0.539078258753917
-0.4909667896874996	-0.536961269950893
-0.4909057545312496	-0.5348366659128057
-0.4908447193749996	-0.5327044799162532
-0.4907836842187496	-0.5305647366937067
-0.4907226490624996	-0.5284174520096563
-0.4906616139062496	-0.5262626325406395
-0.4906005787499996	-0.524100276299114
-0.4905395435937496	-0.5219303735137455
-0.4904785084374996	-0.5197529076671183
-0.4904174732812496	-0.5175678563869415
-0.4903564381249996	-0.515375192226189
-0.4902954029687496	-0.513174883715991
-0.4902343678124996	-0.5109668968171831
-0.4901733326562496	-0.5087511965379885
-0.4901122974999996	-0.5065277484571253
-0.4900512623437496	-0.5042965200599279
-0.4899902271874996	-0.5020574821047171
-0.4899291920312496	-0.49981061007020183
-0.4898681568749996	-0.4975558854088832
-0.4898071217187496	-0.4952932964982721
-0.4897460865624996	-0.49302283950325543
-0.4896850514062496	-0.4907445195221926
-0.4896240162499996	-0.48845835172640506
-0.4895629810937496	-0.48616436167783533
-0.4895019459374996	-0.48386258500063734
-0.4894409107812496	-0.48155306718197544
-0.4893798756249996	-0.479235863506448
-0.4893188404687496	-0.47691103875356916
-0.4892578053124996	-0.4745786665509441
-0.4891967701562496	-0.4722388283797219
-0.4891357349999996	-0.46989161226724874
-0.4890746998437496	-0.4675371113981612
-0.4890136646874996	-0.4651754228857328
-0.4889526295312496	-0.46280664653602166
-0.4888915943749996	-0.46043088333116267
-0.4888305592187496	-0.4580482337160396
-0.4887695240624996	-0.4556587960053645
-0.4887084889062496	-0.45326266502974794
-0.4886474537499996	-0.4508599308157083
-0.4885864185937496	-0.4484506773051534
-0.4885253834374996	-0.44603498126648344
-0.4884643482812496	-0.4436129113308209
-0.4884033131249996	-0.441184527122018
-0.4883422779687496	-0.4387498785714659
-0.4882812428124996	-0.43630900553407553
-0.4882202076562496	-0.4338619377241658
-0.4881591724999996	-0.4314086949004457
-0.4880981373437496	-0.42894928719938574
-0.4880371021874996	-0.4264837155617407
-0.4879760670312496	-0.4240119724061292
-0.4879150318749996	-0.4215340426229983
-0.4878539967187496	-0.41904990470841874
-0.4877929615624996	-0.41655953196289625
-0.4877319264062496	-0.4140628939487066
-0.4876708912499996	-0.41155995818460483
-0.4876098560937496	-0.4090506917227776
-0.4875488209374996	-0.4065350625844963
-0.4874877857812496	-0.40401304124651294
-0.4874267506249996	-0.4014846021262226
-0.4873657154687496	-0.3989497249689116
-0.4873046803124996	-0.39640839616748813
-0.4872436451562496	-0.39386060997212247
-0.4871826099999996	-0.39130636933111745
-0.4871215748437496	-0.38874568642516416
-0.4870605396874996	-0.3861785833292077
-0.4869995045312496	-0.38360509271313603
-0.4869384693749996	-0.3810252580627128
-0.4868774342187496	-0.37843913341681873
-0.4868163990624996	-0.37584678297725027
-0.4867553639062496	-0.3732482805036551
-0.4866943287499996	-0.3706437083757837
-0.4866332935937496	-0.3680331565611983
-0.4865722584374996	-0.36541672145479065
-0.4865112232812496	-0.3627945044778566
-0.4864501881249996	-0.3601666105743182
-0.4863891529687496	-0.35753314658189406
-0.4863281178124996	-0.354894219535332
-0.4862670826562496	-0.3522499352523311
-0.4862060474999996	-0.3496003970364783
-0.4861450123437496	-0.3469457039910156
-0.4860839771874996	-0.3442859492977485
-0.4860229420312496	-0.34162121892999314
-0.4859619068749996	-0.33895159047507845
-0.4859008717187496	-0.33627713203552195
-0.4858398365624996	-0.33359790145987345
-0.4857788014062496	-0.33091394571813737
-0.4857177662499996	-0.3282253004003868
-0.4856567310937496	-0.3255319895301306
-0.4855956959374996	-0.322834025783243
-0.4855346607812496	-0.320131411063674
-0.4854736256249996	-0.3174241370721026
-0.4854125904687496	-0.3147121857926523
-0.4853515553124996	-0.31199553033115013
-0.4852905201562496	-0.30927413631042555
-0.4852294849999996	-0.30654796361661063
-0.4851684498437496	-0.30381696816988135
-0.4851074146874996	-0.301081103605466
-0.4850463795312496	-0.2983403230443878
-0.4849853443749996	-0.295594580964971
-0.4849243092187496	-0.2928438349870578
-0.4848632740624996	-0.29008804768222757
-0.4848022389062496	-0.2873271885898224
-0.4847412037499996	-0.2845612361857482
-0.4846801685937496	-0.281790179463928
-0.4846191334374996	-0.27901401922957214
-0.4845580982812496	-0.2762327692294541
-0.4844970631249996	-0.27344645695474024
-0.4844360279687496	-0.27065512421068066
-0.4843749928124996	-0.2678588276112959
-0.4843139576562496	-0.2650576387116086
-0.4842529224999996	-0.26225164357347186
-0.4841918873437496	-0.2594409420267106
-0.4841308521874996	-0.25662564669773646
-0.4840698170312496	-0.25380588156231776
-0.4840087818749996	-0.25098178020164486
-0.4839477467187496	-0.24815348402991325
-0.4838867115624996	-0.24532114033991556
-0.4838256764062496	-0.24248490006213197
-0.4837646412499996	-0.2396449153066262
-0.4837036060937496	-0.2368013368223174
-0.4836425709374996	-0.23395431151784735
-0.4835815357812496	-0.23110398002236138
-0.4835205006249996	-0.22825047425599085
-0.4834594654687496	-0.2253939151008315
-0.4833984303124996	-0.2225344102622466
-0.4833373951562496	-0.21967205239035745
-0.4832763599999996	-0.21680691756807452
-0.4832153248437496	-0.21393906418570202
-0.4831542896874996	-0.21106853214931465
-0.4830932545312496	-0.2081953425610964
-0.4830322193749996	-0.2053194978670384
-0.4829711842187496	-0.20244098218649106
-0.4829101490624996	-0.19955976192712918
-0.4828491139062496	-0.1966757868669444
-0.4827880787499996	-0.19378899156967705
-0.4827270435937496	-0.19089929731852515
-0.4826660084374996	-0.18800661465800061
-0.4826049732812496	-0.18511084611829376
-0.4825439381249996	-0.18221188899572116
-0.4824829029687496	-0.1793096383447986
-0.4824218678124996	-0.17640399009849614
-0.4823608326562496	-0.1734948441522191
-0.4822997974999996	-0.17058210735518878
-0.4822387623437496	-0.16766569632452394
-0.4821777271874996	-0.16474554010367237
-0.4821166920312496	-0.16182158289140836
-0.4820556568749996	-0.15889378661614076
-0.4819946217187496	-0.15596213287756597
-0.4819335865624996	-0.15302662432394007
-0.4818725514062496	-0.15008728568244897
-0.4818115162499996	-0.1471441644212305
-0.4817504810937496	-0.1441973309802275
-0.4816894459374996	-0.14124687847296405
-0.4816284107812496	-0.13829292183141026
-0.4815673756249996	-0.13533559645703855
-0.4815063404687496	-0.13237505629490495
-0.4814453053124996	-0.12941147152437418
-0.4813842701562496	-0.12644502628326282
-0.4813232349999996	-0.12347591607476795
-0.4812621998437496	-0.12050434439779499
-0.4812011646874996	-0.11753051906830234
-0.4811401295312496	-0.11455464866728618
-0.4810790943749996	-0.11157693890951088
-0.4810180592187496	-0.10859758878291012
-0.4809570240624996	-0.1056167867802449
-0.4808959889062496	-0.10263470770108331
-0.4808349537499996	-0.09965150987469967
-0.4807739185937496	-0.0966673322899959
-0.4807128834374996	-0.09368229185542121
-0.4806518482812496	-0.09069648134764294
-0.4805908131249996	-0.0877099681500986
-0.4805297779687496	-0.0847227935889684
-0.4804687428124996	-0.08173497259870485
-0.4804077076562496	-0.0787464938543838
-0.4803466724999996	-0.07575732073635084
-0.4802856373437496	-0.07276739295681009
-0.4802246021874996	-0.0697766286472322
-0.4801635670312496	-0.06678492688637817
-0.4801025318749996	-0.06379217050512759
-0.4800414967187496	-0.060798229271575396
-0.4799804615624996	-0.05780296365733938
-0.4799194264062496	-0.05480622899048607
-0.4798583912499996	-0.05180787961900769
-0.4797973560937496	-0.048807773027327556
-0.4797363209374996	-0.0458057740427785
-0.4796752857812496	-0.0428017589252848
-0.4796142506249996	-0.03979561906553623
-0.4795532154687496	-0.03678726436480853
-0.4794921803124996	-0.03377662644644707
-0.4794311451562496	-0.030763661553009043
-0.4793701099999996	-0.027748352805351328
-0.4793090748437496	-0.02473071173743258
-0.4792480396874996	-0.021710779136750933
-0.4791870045312496	-0.018688625229591294
-0.4791259693749996	-0.015664349378448482
-0.4790649342187496	-0.012638079190268194
-0.4790038990624996	-0.009609968833793081
-0.4789428639062496	-0.00658019671984846
-0.4788818287499996	-0.003548962699011023
-0.4788207935937496	-0.0005164847875514443
-0.4787597584374996	0.0025170045683541387
-0.4786987232812496	0.005551262661702026
-0.4786376881249996	0.00858604096680887
-0.4785766529687496	0.011621089672996956
-0.4785156178124996	0.014656162309370335
-0.4784545826562496	0.01769102041154875
-0.4783935474999996	0.020725437938918675
-0.4783325123437496	0.02375920528507381
-0.4782714771874996	0.02679213295235219
-0.4782104420312496	0.029824054913506176
-0.4781494068749996	0.03285483165801663
-0.4780883717187496	0.035884352725423604
-0.4780273365624996	0.03891253836318817
-0.4779663014062496	0.04193934023802934
-0.4779052662499996	0.044964741415000266
-0.4778442310937496	0.04798875576080484
-0.4777831959374996	0.05101142674217617
-0.4777221607812496	0.054032825493872054
-0.4776611256249996	0.05705304813572747
-0.4776000904687496	0.06007221266332312
-0.4775390553124996	0.06309045556207232
-0.4774780201562496	0.06610792776071969
-0.4774169849999996	0.06912479001298022
-0.4773559498437496	0.0721412082385934
-0.4772949146874996	0.07515734882519462
-0.4772338795312496	0.07817337385097296
-0.4771728443749996	0.08118943646483574
-0.4771118092187496	0.08420567639593637
-0.4770507740624996	0.08722221564244842
-0.4769897389062496	0.09023915478944355
-0.4769287037499996	0.09325657005480122
-0.4768676685937496	0.09627451071942632
-0.4768066334374996	0.09929299704444484
-0.4767455982812496	0.10231201907740835
-0.4766845631249996	0.10533153638060266
-0.4766235279687496	0.10835147847394822
-0.4765624928124996	0.11137174586389201
-0.4765014576562496	0.11439221176005249
-0.4764404224999996	0.11741272462957766
-0.4763793873437496	0.12043311145563658
-0.4763183521874996	0.12345318134462246
-0.4762573170312496	0.12647272938425866
-0.4761962818749996	0.12949154106775962
-0.4761352467187496	0.13250939734976885
-0.4760742115624996	0.13552607981537473
-0.4760131764062496	0.13854137559564936
-0.4759521412499996	0.14155508212999823
-0.4758911060937496	0.1445670116103862
-0.4758300709374996	0.14757699479953232
-0.4757690357812496	0.1505848844618569
-0.4757080006249996	0.15359055858898116
-0.4756469654687496	0.1565939229315103
-0.4755859303124996	0.1595949123807881
-0.4755248951562496	0.1625934911868229
-0.4754638599999996	0.16558965200861864
-0.4754028248437496	0.1685834136456044
-0.4753417896874996	0.17157481706159441
-0.4752807545312496	0.17456391865283186
-0.4752197193749996	0.1775507794579539
-0.4751586842187496	0.1805354513674129
-0.4750976490624996	0.18351796470257511
-0.4750366139062496	0.18649832084365506
-0.4749755787499996	0.18947648988690005
-0.4749145435937496	0.19245241149888825
-0.4748535084374996	0.1954259978076215
-0.4747924732812496	0.19839713773542653
-0.4747314381249996	0.20136570212068203
-0.4746704029687496	0.2043315492047224
-0.4746093678124996	0.20729453027781294
-0.4745483326562496	0.21025449538781438
-0.4744872974999996	0.21321129908116057
-0.4744262623437496	0.21616480594253615
-0.4743652271874996	0.21911489556001734
-0.4743041920312496	0.22206146678319774
-0.4742431568749996	0.22500444139927314
-0.4741821217187496	0.22794376706888506
-0.4741210865624996	0.23087941929370537
-0.4740600514062496	0.23381140260026453
-0.4739990162499996	0.23673975087302665
-0.4739379810937496	0.23966452670455438
-0.4738769459374996	0.24258582004993712
-0.4738159107812496	0.2455037462460657
-0.4737548756249996	0.24841844321666492
-0.4736938404687496	0.25133006778545774
-0.4736328053124996	0.25423879142694844
-0.4735717701562496	0.25714479588972355
-0.4735107349999996	0.2600482684951251
-0.4734496998437496	0.26294939692661484
-0.4733886646874996	0.26584836387054284
-0.4733276295312496	0.2687453418288496
-0.4732665943749996	0.2716404881068943
-0.4732055592187496	0.27453394006801984
-0.4731445240624996	0.27742581079826173
-0.4730834889062496	0.2803161850598509
-0.4730224537499996	0.28320511572968
-0.4729614185937496	0.28609262114789574
-0.4729003834374996	0.28897868323512094
-0.4728393482812496	0.2918632461730769
-0.4727783131249996	0.2947462159647563
-0.4727172779687496	0.29762746104612214
-0.4726562428124996	0.30050681365714677
-0.4725952076562496	0.3033840718335087
-0.4725341724999996	0.3062590021487815
-0.4724731373437496	0.30913134328725556
-0.4724121021874996	0.31200081029850596
-0.4723510670312496	0.31486709923673617
-0.4722900318749996	0.31772989211340663
-0.4722289967187496	0.32058886229508915
-0.4721679615624996	0.32344368028774845
-0.4721069264062496	0.32629401952064924
-0.4720458912499996	0.32913956183819876
-0.4719848560937496	0.33198000278634815
-0.4719238209374996	0.33481505679960244
-0.4718627857812496	0.33764446217959493
-0.4718017506249996	0.3404679855882435
-0.4717407154687496	0.3432854257586512
-0.4716796803124996	0.34609661636307965
-0.4716186451562496	0.3489014282588687
-0.4715576099999996	0.3516997711876135
-0.4714965748437496	0.3544915946256387
-0.4714355396874996	0.35727688767422294
-0.4713745045312496	0.3600556781893124
-0.4713134693749996	0.3628280312106636
-0.4712524342187496	0.3655940466838283
-0.4711913990624996	0.3683538564197199
-0.4711303639062496	0.3711076203460197
-0.4710693287499996	0.3738555223218242
-0.4710082935937496	0.37659776545674833
-0.4709472584374996	0.3793345668806275
-0.4708862232812496	0.3820661523041878
-0.4708251881249996	0.38479275056555357
-0.4707641529687496	0.3875145882167786
-0.4707031178124996	0.39023188415683896
-0.4706420826562496	0.3929448443365788
-0.4705810474999996	0.3956536567778414
-0.4705200123437496	0.3983584869111984
-0.4704589771874996	0.4010594732174252
-0.4703979420312496	0.4037567236332547
-0.4703369068749996	0.40645031281351385
-0.4702758717187496	0.4091402798192149
-0.4702148365624996	0.41182662627786293
-0.4701538014062496	0.4145093154365845
-0.4700927662499996	0.4171882721749655
-0.4700317310937496	0.4198633837843828
-0.4699706959374996	0.42253450135076037
-0.4699096607812496	0.42520144173862584
-0.4698486256249996	0.42786399035805583
-0.4697875904687496	0.4305219046605446
-0.4697265553124996	0.433174918105076
