Time	Frequency
-0.5000152510312499	0.6716986818954599
-0.4999542158749999	0.6704316040692642
-0.4998931807187499	0.6691557921509668
-0.4998321455624999	0.6678712837139376
-0.4997711104062499	0.6665781085389452
-0.4997100752499999	0.6652762881428472
-0.4996490400937499	0.6639658355567654
-0.4995880049374999	0.6626467554107146
-0.4995269697812499	0.6613190441237459
-0.4994659346249999	0.6599826902142597
-0.4994048994687499	0.6586376749872597
-0.4993438643124999	0.6572839734822425
-0.4992828291562499	0.655921555353382
-0.4992217939999999	0.6545503858587233
-0.4991607588437499	0.6531704272142047
-0.4990997236874999	0.651781640037137
-0.4990386885312499	0.6503839845851274
-0.4989776533749999	0.6489774219582801
-0.4989166182187499	0.6475619154958665
-0.4988555830624999	0.6461374322219509
-0.4987945479062499	0.6447039440925124
-0.4987335127499999	0.6432614289532821
-0.4986724775937499	0.6418098712426872
-0.4986114424374999	0.6403492625551507
-0.4985504072812499	0.6388796020206796
-0.4984893721249999	0.6374008964977417
-0.4984283369687499	0.6359131608280403
-0.4983673018124999	0.6344164180811607
-0.4983062666562499	0.632910699439494
-0.4982452314999999	0.6313960437436856
-0.4981841963437499	0.6298724968380619
-0.4981231611874999	0.6283401107344946
-0.4980621260312499	0.626798942737842
-0.4980010908749999	0.6252490546043333
-0.4979400557187499	0.6236905116502366
-0.4978790205624999	0.6221233817233108
-0.4978179854062499	0.6205477339735495
-0.4977569502499999	0.6189636375237345
-0.4976959150937499	0.6173711602057047
-0.4976348799374999	0.6157703675022307
-0.4975738447812499	0.6141613218495268
-0.4975128096249999	0.612544082099052
-0.4974517744687499	0.6109187028694623
-0.4973907393124999	0.6092852339092751
-0.4973297041562499	0.6076437194249947
-0.4972686689999999	0.6059941974153201
-0.4972076338437499	0.6043366993711717
-0.4971465986874999	0.6026712502852943
-0.4970855635312499	0.6009978687031575
-0.4970245283749999	0.5993165667872605
-0.4969634932187499	0.5976273505434784
-0.4969024580624999	0.5959302202939483
-0.4968414229062499	0.5942251711956462
-0.4967803877499999	0.59251219364207
-0.4967193525937499	0.5907912737328072
-0.4966583174374999	0.5890623940018194
-0.4965972822812499	0.5873255342545418
-0.4965362471249999	0.5855806723872315
-0.4964752119687499	0.5838277852103009
-0.4964141768124999	0.5820668492153926
-0.4963531416562499	0.5802978413532396
-0.4962921064999999	0.578520739928045
-0.4962310713437499	0.5767355255469282
-0.4961700361874999	0.5749421820045254
-0.4961090010312499	0.5731406969449162
-0.4960479658749999	0.57133106232894
-0.4959869307187499	0.5695132749145478
-0.4959258955624999	0.5676873366944724
-0.4958648604062499	0.5658532552019372
-0.4958038252499999	0.5640110438558725
-0.4957427900937499	0.5621607222595848
-0.4956817549374999	0.5603023161505345
-0.4956207197812499	0.558435857221927
-0.4955596846249999	0.556561383149501
-0.4954986494687499	0.5546789374676647
-0.4954376143124999	0.552788569054983
-0.4953765791562499	0.550890331585117
-0.4953155439999999	0.5489842829394493
-0.4952545088437499	0.5470704843943676
-0.4951934736874999	0.5451489998833728
-0.4951324385312499	0.5432198954486738
-0.4950714033749999	0.5412832385962022
-0.4950103682187499	0.5393390974870718
-0.4949493330624999	0.5373875399739524
-0.4948882979062499	0.5354286325462667
-0.4948272627499999	0.5334624394126948
-0.4947662275937499	0.5314890216470346
-0.4947051924374999	0.5295084363972689
-0.4946441572812499	0.5275207363723379
-0.4945831221249999	0.5255259694129643
-0.4945220869687499	0.5235241778631334
-0.4944610518124999	0.5215153978920933
-0.4944000166562499	0.5194996592798327
-0.4943389814999999	0.5174769857919094
-0.4942779463437499	0.5154473955347755
-0.4942169111874999	0.5134109009701152
-0.4941558760312499	0.5113675089291249
-0.4940948408749999	0.5093172209337451
-0.4940338057187499	0.5072600337964578
-0.4939727705624999	0.5051959403454149
-0.4939117354062499	0.5031249301708941
-0.4938507002499999	0.5010469902116618
-0.4937896650937499	0.49896210523374196
-0.4937286299374999	0.4968702586585981
-0.4936675947812499	0.49477143367397053
-0.4936065596249999	0.4926656140053228
-0.4935455244687499	0.4905527843609894
-0.4934844893124999	0.4884329310186404
-0.4934234541562499	0.48630604252285764
-0.4933624189999999	0.48417211033072505
-0.4933013838437499	0.48203112941346965
-0.4932403486874999	0.47988309873453133
-0.4931793135312499	0.47772802169907264
-0.4931182783749999	0.4755659066199375
-0.4930572432187499	0.47339676696201977
-0.4929962080624999	0.47122062124191644
-0.4929351729062499	0.46903749279076384
-0.4928741377499999	0.46684740974467664
-0.4928131025937499	0.46465040521859624
-0.4927520674374999	0.462446517337865
-0.4926910322812499	0.4602357890317199
-0.4926299971249999	0.4580182676913955
-0.4925689619687499	0.4557940048581628
-0.4925079268124999	0.4535630559647567
-0.4924468916562499	0.4513254800479968
-0.4923858564999999	0.44908133941067896
-0.4923248213437499	0.4468306992011459
-0.4922637861874999	0.4445736268457185
-0.4922027510312499	0.44231019132941934
-0.4921417158749999	0.4400404625284105
-0.4920806807187499	0.43776451075669054
-0.4920196455624999	0.4354824063206093
-0.4919586104062499	0.4331942188944094
-0.4918975752499999	0.4309000167252123
-0.4918365400937499	0.42859986579507103
-0.4917755049374999	0.42629382920008446
-0.4917144697812499	0.4239819666131793
-0.4916534346249999	0.42166433352903054
-0.4915923994687499	0.4193409804952085
-0.4915313643124999	0.41701195253846096
-0.4914703291562499	0.414677288676036
-0.4914092939999999	0.4123370214587335
-0.4913482588437499	0.40999117651925787
-0.4912872236874999	0.4076397720769632
-0.4912261885312499	0.4052828185757893
-0.4911651533749999	0.4029203186316798
-0.4911041182187499	0.40055226726384113
-0.4910430830624999	0.3981786524155415
-0.4909820479062499	0.3957994556480626
-0.4909210127499999	0.39341465286984245
-0.4908599775937499	0.39102421522047315
-0.4907989424374999	0.3886281100255976
-0.4907379072812499	0.38622630169798416
-0.4906768721249999	0.38381875296018086
-0.4906158369687499	0.38140542645405345
-0.4905548018124999	0.3789862861560749
-0.4904937666562499	0.3765612985006685
-0.4904327314999999	0.3741304337719696
-0.4903716963437499	0.37169366785549557
-0.4903106611874999	0.369250983704673
-0.4902496260312499	0.3668023723837203
-0.4901885908749999	0.3643478341554048
-0.4901275557187499	0.3618873795323628
-0.4900665205624999	0.35942103008966786
-0.4900054854062499	0.35694881904523845
-0.4899444502499999	0.3544707914327335
-0.4898834150937499	0.35198700401287325
-0.4898223799374999	0.3494975252441665
-0.4897613447812499	0.347002435134727
-0.4897003096249999	0.34450182450719147
-0.4896392744687499	0.34199579366217575
-0.4895782393124999	0.33948445090922885
-0.4895172041562499	0.3369679111030293
-0.4894561689999999	0.3344462940352604
-0.4893951338437499	0.3319197226907888
-0.4893340986874999	0.3293883213360119
-0.4892730635312499	0.32685221339856313
-0.4892120283749999	0.3243115192720462
-0.4891509932187499	0.3217663541118638
-0.4890899580624999	0.31921682562187687
-0.4890289229062499	0.316663032129829
-0.4889678877499999	0.31410506110360414
-0.4889068525937499	0.31154298779421535
-0.4888458174374999	0.3089768739552314
-0.4887847822812499	0.30640676682817714
-0.4887237471249999	0.30383269849141575
-0.4886627119687499	0.3012546857127962
-0.4886016768124999	0.2986727301535041
-0.4885406416562499	0.2960868187446458
-0.4884796064999999	0.2934969244763559
-0.4884185713437499	0.29090300762816085
-0.4883575361874999	0.28830501724773777
-0.4882965010312499	0.28570289288123557
-0.4882354658749999	0.2830965665197847
-0.4881744307187499	0.28048596494937655
-0.4881133955624999	0.27787101267083164
-0.4880523604062499	0.2752516349436193
-0.4879913252499999	0.2726277606710941
-0.4879302900937499	0.2699993251556499
-0.4878692549374999	0.2673662726119274
-0.4878082197812499	0.2647285584534009
-0.4877471846249999	0.26208615143412217
-0.4876861494687499	0.259439035573557
-0.4876251143124999	0.2567872118198704
-0.4875640791562499	0.2541306994386259
-0.4875030439999999	0.2514695369540432
-0.4874420088437499	0.24880378251262594
-0.4873809736874999	0.24613351359598712
-0.4873199385312499	0.24345882615890868
-0.4872589033749999	0.24077983342249082
-0.4871978682187499	0.23809666430626106
-0.4871368330624999	0.23540946154260933
-0.4870757979062499	0.23271837943167278
-0.4870147627499999	0.23002358092664807
-0.4869537275937499	0.22732523421092604
-0.4868926924374999	0.22462350931271766
-0.4868316572812499	0.22191857494760958
-0.4867706221249999	0.21921059537319215
-0.4867095869687499	0.21649972708605872
-0.4866485518124999	0.2137861154148696
-0.4865875166562499	0.2110698914726073
-0.4865264814999999	0.20835116991435998
-0.4864654463437499	0.20563004703054372
-0.4864044111874999	0.2029065987541785
-0.4863433760312499	0.20018087907603033
-0.4862823408749999	0.19745291914578172
-0.4862213057187499	0.19472272688554315
-0.4861602705624999	0.19199028716355193
-0.4860992354062499	0.18925556276713673
-0.4860382002499999	0.18651849617927027
-0.4859771650937499	0.1837790117270686
-0.4859161299374999	0.18103701791721408
-0.4858550947812499	0.17829241015393893
-0.4857940596249999	0.17554507375978015
-0.4857330244687499	0.17279488729836873
-0.4856719893124999	0.17004172643745008
-0.4856109541562499	0.16728546798074717
-0.4855499189999999	0.16452599358272965
-0.4854888838437499	0.16176319355534702
-0.4854278486874999	0.15899697092212456
-0.4853668135312499	0.15622724504523902
-0.4853057783749999	0.15345395454902067
-0.4852447432187499	0.15067705976528448
-0.4851837080624999	0.14789654489205234
-0.4851226729062499	0.14511241985581835
-0.4850616377499999	0.14232472149955505
-0.4850006025937499	0.13953351394008115
-0.4849395674374999	0.13673888847842194
-0.4848785322812499	0.13394096294339333
-0.4848174971249999	0.13113988000716092
-0.4847564619687499	0.12833580478089812
-0.4846954268124999	0.12552892205702304
-0.4846343916562499	0.12271943295267759
-0.4845733564999999	0.11990755097315052
-0.4845123213437499	0.11709349810400878
-0.4844512861874999	0.11427750098959227
-0.4843902510312499	0.11145978648567594
-0.4843292158749999	0.10864057661994164
-0.4842681807187499	0.10582008371018337
-0.4842071455624999	0.10299850587903471
-0.4841461104062499	0.10017602302715621
-0.4840850752499999	0.0973527933784424
-0.4840240400937499	0.09452895043973417
-0.4839630049374999	0.09170460026864846
-0.4839019697812499	0.08887981915589027
-0.4838409346249999	0.08605465216389356
-0.4837798994687499	0.0832291128391952
-0.4837188643124999	0.08040318372383358
-0.4836578291562499	0.07757681731649632
-0.4835967939999999	0.07474993768863462
-0.4835357588437499	0.07192244301159521
-0.4834747236874999	0.06909420873186903
-0.4834136885312499	0.06626509102460168
-0.4833526533749999	0.06343493063032908
-0.4832916182187499	0.06060355728031906
-0.4832305830624999	0.057770794550642546
-0.4831695479062499	0.05493646484454811
-0.4831085127499999	0.05210039442517088
-0.4830474775937499	0.0492624182735192
-0.4829864424374999	0.046422384617373406
-0.4829254072812499	0.04358015948267049
-0.4828643721249999	0.04073563107639865
-0.4828033369687499	0.037888713323273544
-0.4827423018124999	0.035039348626221496
-0.4826812666562499	0.03218751022846184
-0.4826202314999999	0.02933320397133305
-0.4825591963437499	0.02647646906248414
-0.4824981611874999	0.023617378138039165
-0.4824371260312499	0.020756037028102595
-0.4823760908749999	0.017892583760847243
-0.4823150557187499	0.015027186429760258
-0.4822540205624999	0.01216004026682378
-0.4821929854062499	0.009291364119177066
-0.4821319502499999	0.006421396367439425
-0.4820709150937499	0.00355039040978866
-0.4820098799374999	0.000678609750039776
-0.4819488447812499	-0.0021936773487822537
-0.4818878096249999	-0.005066203343009536
-0.4818267744687499	-0.007938706624659632
-0.4817657393124999	-0.010810936865335673
-0.4817047041562499	-0.013682660648808654
-0.4816436689999999	-0.016553666614719853
-0.4815826338437499	-0.01942376971668997
-0.4815215986874999	-0.022292814845615645
-0.4814605635312499	-0.025160679989297927
-0.4813995283749999	-0.028027278686317072
-0.4813384932187499	-0.0308925614473361
-0.4812774580624999	-0.033756516180967894
-0.4812164229062499	-0.03661916766224583
-0.4811553877499999	-0.03948057604260351
-0.4810943525937499	-0.042340834494883246
-0.4810333174374999	-0.04520006608398615
-0.4809722822812499	-0.04805842013223064
-0.4809112471249999	-0.05091606806334581
-0.4808502119687499	-0.05377319848030376
-0.4807891768124999	-0.05663001161411282
-0.4807281416562499	-0.05948671335808268
-0.4806671064999999	-0.06234350928186533
-0.4806060713437499	-0.06520059901140769
-0.4805450361874999	-0.06805817067585022
-0.4804840010312499	-0.070916395247626
-0.4804229658749999	-0.07377542133505133
-0.4803619307187499	-0.07663537080939334
-0.4803008955624999	-0.07949633496767805
-0.4802398604062499	-0.08235837103821751
-0.4801788252499999	-0.08522149944973487
-0.4801177900937499	-0.0880857021220353
-0.4800567549374999	-0.09095092154491535
-0.4799957197812499	-0.09381706057161093
-0.4799346846249999	-0.09668398321692674
-0.4798736494687499	-0.09955151665221076
-0.4798126143124999	-0.10241945422680118
-0.4797515791562499	-0.10528755927840812
-0.4796905439999999	-0.10815556949473341
-0.4796295088437499	-0.11102320177284661
-0.4795684736874999	-0.11389015790423228
-0.4795074385312499	-0.11675613101962452
-0.4794464033749999	-0.11962081215734423
-0.4793853682187499	-0.12248389655898717
-0.4793243330624999	-0.12534508978350867
-0.4792632979062499	-0.12820411386793448
-0.4792022627499999	-0.1310607132660748
-0.4791412275937499	-0.13391465992575674
-0.4790801924374999	-0.13676575757184392
-0.4790191572812499	-0.13961384559122073
-0.4789581221249999	-0.14245880218470797
-0.4788970869687499	-0.14530054646821938
-0.4788360518124999	-0.14813903967585973
-0.4787750166562499	-0.1509742854189564
-0.4787139814999999	-0.1538063289113823
-0.4786529463437499	-0.15663525520997065
-0.4785919111874999	-0.15946118655942793
-0.4785308760312499	-0.1622842788682801
-0.4784698408749999	-0.1651047172359594
-0.4784088057187499	-0.1679227107379436
-0.4783477705624999	-0.17073848667235453
-0.4782867354062499	-0.17355228439830023
-0.4782257002499999	-0.1763643489972776
-0.4781646650937499	-0.1791749246357598
-0.4781036299374999	-0.1819842476963034
-0.4780425947812499	-0.1847925401776267
-0.4779815596249999	-0.1876000035597296
-0.4779205244687499	-0.19040681321429634
-0.4778594893124999	-0.1932131136272287
-0.4777984541562499	-0.19601901448260972
-0.4777374189999999	-0.1988245873682963
-0.4776763838437499	-0.20162986308626615
-0.4776153486874999	-0.2044348300998218
-0.4775543135312499	-0.20723943460537336
-0.4774932783749999	-0.2100435818404078
-0.4774322432187499	-0.21284713800331423
-0.4773712080624999	-0.2156499329102037
-0.4773101729062499	-0.2184517638243476
-0.4772491377499999	-0.22125240039723243
-0.4771881025937499	-0.22405159021445603
-0.4771270674374999	-0.22684906484849265
-0.4770660322812499	-0.2296445466237822
-0.4770049971249999	-0.23243775564830838
-0.4769439619687499	-0.23522841655186155
-0.4768829268124999	-0.23801626498104106
-0.4768218916562499	-0.24080105392510062
-0.4767608564999999	-0.24358255966779635
-0.4766998213437499	-0.24636058703053146
-0.4766387861874999	-0.24913497350054348
-0.4765777510312499	-0.2519055920365322
-0.4765167158749999	-0.254672352531555
-0.4764556807187499	-0.2574352015723939
-0.4763946455624999	-0.26019411981648993
-0.4763336104062499	-0.26294911573296303
-0.4762725752499999	-0.26570021381745623
-0.4762115400937499	-0.26844743894782197
-0.4761505049374999	-0.2711908033213991
-0.4760894697812499	-0.27393030014939995
-0.4760284346249999	-0.2766659029499475
-0.4759673994687499	-0.27939756767728785
-0.4759063643124999	-0.28212523618864993
-0.4758453291562499	-0.284848840723764
-0.4757842939999999	-0.28756830894327545
-0.4757232588437499	-0.29028356900495084
-0.4756622236874999	-0.2929945544477847
-0.4756011885312499	-0.29570120869527716
-0.4755401533749999	-0.29840348907306924
-0.4754791182187499	-0.3011013700817347
-0.4754180830624999	-0.3037948457395597
-0.4753570479062499	-0.3064839312321523
-0.4752960127499999	-0.30916866387199515
-0.4752349775937499	-0.31184910316721
-0.4751739424374999	-0.314525330038163
-0.4751129072812499	-0.3171974452449031
-0.4750518721249999	-0.31986556715006176
-0.4749908369687499	-0.3225298288810293
-0.4749298018124999	-0.3251903748844776
-0.4748687666562499	-0.3278473571010965
-0.4748077314999999	-0.3305009308565339
-0.4747466963437499	-0.3331512505077631
-0.4746856611874999	-0.3357984651605162
-0.4746246260312499	-0.3384427146659149
-0.4745635908749999	-0.34108412578082065
-0.4745025557187499	-0.34372280834445423
-0.4744415205624999	-0.3463588517752766
-0.4743804854062499	-0.3489923222083727
-0.4743194502499999	-0.3516232602271617
-0.4742584150937499	-0.3542516793758141
-0.4741973799374999	-0.3568775655259652
-0.4741363447812499	-0.3595008767174858
-0.4740753096249999	-0.3621215433104103
-0.4740142744687499	-0.36473946876232266
-0.4739532393124999	-0.3673545313008674
-0.4738922041562499	-0.36996658624763246
-0.4738311689999999	-0.3725754686614474
-0.4737701338437499	-0.37518099624701384
-0.4737090986874999	-0.37778297261004096
-0.4736480635312499	-0.38038119098289813
-0.4735870283749999	-0.3829754381586974
-0.4735259932187499	-0.38556549812702895
-0.4734649580624999	-0.3881511555418274
-0.4734039229062499	-0.3907321993641303
-0.4733428877499999	-0.3933084264152489
-0.4732818525937499	-0.3958796443469519
-0.4732208174374999	-0.3984456739138394
-0.4731597822812499	-0.4010063508610036
-0.4730987471249999	-0.40356152752762076
-0.4730377119687499	-0.4061110739670268
-0.4729766768124999	-0.40865487860109834
-0.4729156416562499	-0.41119284848852655
-0.4728546064999999	-0.4137249090973427
-0.4727935713437499	-0.4162510034585027
-0.4727325361874999	-0.41877109088815084
-0.4726715010312499	-0.42128514553392393
-0.4726104658749999	-0.4237931547234535
-0.4725494307187499	-0.4262951171103055
-0.4724883955624999	-0.42879104067406665
-0.4724273604062499	-0.43128094062758837
-0.4723663252499999	-0.4337648373033013
-0.4723052900937499	-0.436242754104738
-0.4722442549374999	-0.43871471567029474
-0.4721832197812499	-0.44118074620760245
-0.4721221846249999	-0.4436408679326336
-0.4720611494687499	-0.4460950998571316
-0.4720001143124999	-0.44854345702856463
-0.4719390791562499	-0.45098594992482893
-0.4718780439999999	-0.45342258390541224
-0.4718170088437499	-0.45585335904975754
-0.4717559736874999	-0.4582782704649066
-0.4716949385312499	-0.4606973087836559
-0.4716339033749999	-0.4631104607546684
-0.4715728682187499	-0.4655177099210368
-0.4715118330624999	-0.4679190374393939
-0.4714507979062499	-0.4703144231644685
-0.4713897627499999	-0.4727038466414716
-0.4713287275937499	-0.4750872877441107
-0.4712676924374999	-0.4774647274014286
-0.4712066572812499	-0.4798361484330939
-0.4711456221249999	-0.482201536058868
-0.4710845869687499	-0.48456087816648213
-0.4710235518124999	-0.48691416551292205
-0.4709625166562499	-0.48926139173913874
-0.4709014814999999	-0.4916025531592278
-0.4708404463437499	-0.49393764835864806
-0.4707794111874999	-0.49626667752593445
-0.4707183760312499	-0.4985896414757352
-0.4706573408749999	-0.5009065404912756
-0.4705963057187499	-0.5032173730098135
-0.4705352705624999	-0.5055221340938812
-0.4704742354062499	-0.5078208139213182
-0.4704132002499999	-0.5101133964140591
-0.4703521650937499	-0.5123998577693851
-0.4702911299374999	-0.514680164898361
-0.4702300947812499	-0.516954274079692
-0.4701690596249999	-0.5192221299784896
-0.4701080244687499	-0.5214836648658664
-0.4700469893124999	-0.5237387979027786
-0.4699859541562499	-0.5259874347385155
-0.4699249189999999	-0.5282294676353554
-0.4698638838437499	-0.5304647759735118
-0.4698028486874999	-0.5326932270903285
-0.4697418135312499	-0.5349146775708524
-0.4696807783749999	-0.5371289749625333
-0.4696197432187499	-0.539335959827457
-0.4695587080624999	-0.5415354680704856
-0.4694976729062499	-0.5437273335062572
