Time	Frequency
-0.5000518483437499	-0.6328000086399668
-0.49999081318749994	-0.631504035390204
-0.49992977803124994	-0.630199962440801
-0.49986874287499994	-0.6288878842425747
-0.49980770771874994	-0.6275678967239999
-0.49974667256249994	-0.6262400941900794
-0.49968563740624994	-0.6249045660438798
-0.49962460224999994	-0.6235613938458902
-0.49956356709374994	-0.6222106490191155
-0.49950253193749994	-0.620852390976984
-0.49944149678124994	-0.6194866655374073
-0.49938046162499994	-0.6181135037596298
-0.49931942646874994	-0.6167329213625605
-0.49925839131249994	-0.6153449188000201
-0.49919735615624994	-0.6139494819041108
-0.49913632099999994	-0.6125465830206915
-0.49907528584374994	-0.611136182711231
-0.49901425068749994	-0.6097182319491891
-0.49895321553124994	-0.6082926745551998
-0.49889218037499994	-0.6068594499039894
-0.49883114521874994	-0.6054184960001914
-0.49877011006249994	-0.6039697525623309
-0.49870907490624994	-0.6025131638427973
-0.49864803974999994	-0.6010486812166022
-0.49858700459374994	-0.5995762655394097
-0.49852596943749994	-0.5980958892803117
-0.49846493428124994	-0.5966075382702999
-0.49840389912499994	-0.5951112128274604
-0.49834286396874994	-0.5936069282777217
-0.49828182881249994	-0.5920947150098839
-0.49822079365624994	-0.5905746180587269
-0.49815975849999994	-0.5890466959941565
-0.49809872334374994	-0.5875110191342873
-0.49803768818749994	-0.585967667486245
-0.49797665303124994	-0.5844167284661714
-0.49791561787499994	-0.5828582942906244
-0.49785458271874994	-0.5812924591791855
-0.49779354756249994	-0.5797193164231181
-0.49773251240624994	-0.5781389555485519
-0.49767147724999994	-0.5765514598096605
-0.49761044209374994	-0.5749569038599242
-0.49754940693749994	-0.5733553515675779
-0.49748837178124994	-0.5717468541976952
-0.49742733662499994	-0.5701314491577266
-0.49736630146874994	-0.5685091592960442
-0.49730526631249994	-0.5668799925573108
-0.49724423115624994	-0.5652439420474169
-0.49718319599999994	-0.5636009868628382
-0.49712216084374994	-0.5619510937879748
-0.49706112568749994	-0.5602942193320697
-0.49700009053124994	-0.558630311625846
-0.49693905537499994	-0.5569593126418622
-0.49687802021874994	-0.5552811611411984
-0.49681698506249994	-0.5535957957831915
-0.49675594990624994	-0.5519031579653201
-0.49669491474999994	-0.5502031945381388
-0.49663387959374994	-0.5484958605238057
-0.49657284443749994	-0.5467811216421945
-0.49651180928124994	-0.5450589562139014
-0.49645077412499994	-0.5433293564324896
-0.49638973896874994	-0.541592329394699
-0.49632870381249994	-0.5398478977896151
-0.49626766865624994	-0.5380960997896624
-0.49620663349999994	-0.5363369882543815
-0.49614559834374994	-0.5345706296749063
-0.49608456318749994	-0.5327971026857307
-0.49602352803124994	-0.5310164958667817
-0.49596249287499994	-0.5292289051603846
-0.49590145771874994	-0.527434431158183
-0.49584042256249994	-0.525633176141604
-0.49577938740624994	-0.5238252410736454
-0.49571835224999994	-0.5220107227691543
-0.49565731709374994	-0.5201897110282377
-0.49559628193749994	-0.5183622858567332
-0.49553524678124994	-0.5165285151855076
-0.49547421162499994	-0.5146884531000951
-0.49541317646874994	-0.5128421385373585
-0.49535214131249994	-0.5109895945730598
-0.49529110615624994	-0.5091308282444547
-0.49523007099999994	-0.5072658307899044
-0.49516903584374994	-0.5053945784368722
-0.49510800068749994	-0.5035170338270754
-0.49504696553124994	-0.5016331480733054
-0.49498593037499994	-0.4997428633160146
-0.49492489521874994	-0.4978461153835645
-0.49486386006249994	-0.4959428365386804
-0.49480282490624994	-0.4940329585511041
-0.49474178974999994	-0.4921164159265558
-0.49468075459374994	-0.49019314905439193
-0.49461971943749994	-0.48826310722210453
-0.49455868428124994	-0.4863262513615211
-0.49449764912499994	-0.48438255630727794
-0.49443661396874994	-0.4824320124827524
-0.49437557881249994	-0.48047462707703076
-0.49431454365624994	-0.4785104247783766
-0.49425350849999994	-0.47653944807555665
-0.49419247334374994	-0.4745617570886719
-0.49413143818749994	-0.4725774286610438
-0.49407040303124994	-0.47058655444609643
-0.49400936787499994	-0.4685892383755569
-0.49394833271874994	-0.46658559400811406
-0.49388729756249994	-0.464575741600813
-0.49382626240624994	-0.4625598047822533
-0.49376522724999994	-0.4605379071767406
-0.49370419209374994	-0.45851016914249804
-0.49364315693749994	-0.4564767043666024
-0.49358212178124994	-0.4544376162530974
-0.49352108662499994	-0.45239299469632904
-0.49346005146874994	-0.4503429137492311
-0.49339901631249994	-0.44828742991856746
-0.49333798115624994	-0.44622658082572725
-0.49327694599999994	-0.4441603844315826
-0.49321591084374994	-0.4420888390170482
-0.49315487568749994	-0.44001192380500215
-0.49309384053124994	-0.4379295999808793
-0.49303280537499994	-0.43584181224827984
-0.49297177021874994	-0.4337484911690334
-0.49291073506249994	-0.4316495562301145
-0.49284969990624994	-0.4295449193401687
-0.49278866474999994	-0.42743448840410464
-0.49272762959374994	-0.42531817098353686
-0.49266659443749994	-0.42319587812725307
-0.49260555928124994	-0.4210675281244682
-0.49254452412499994	-0.4189330500255566
-0.49248348896874994	-0.41679238689079795
-0.49242245381249994	-0.4146454985723589
-0.49236141865624994	-0.4124923639946507
-0.49230038349999994	-0.4103329828848427
-0.49223934834374994	-0.4081673767173801
-0.49217831318749994	-0.4059955889418106
-0.49211727803124994	-0.4038176845892433
-0.49205624287499994	-0.4016337491209064
-0.49199520771874994	-0.3994438865121332
-0.49193417256249994	-0.39724821680093375
-0.49187313740624994	-0.3950468732849792
-0.49181210224999994	-0.39283999922443047
-0.49175106709374994	-0.39062774397264954
-0.49169003193749994	-0.38841025880374996
-0.49162899678124994	-0.38618769284295895
-0.49156796162499994	-0.3839601892033371
-0.49150692646874994	-0.38172788109888045
-0.49144589131249994	-0.3794908881727142
-0.49138485615624994	-0.37724931353602587
-0.49132382099999994	-0.37500324145027325
-0.49126278584374994	-0.37275273533593023
-0.49120175068749994	-0.3704978362235017
-0.49114071553124994	-0.3682385620545474
-0.49107968037499994	-0.3659749080024531
-0.49101864521874994	-0.36370684779525203
-0.49095761006249994	-0.3614343358016005
-0.49089657490624994	-0.35915730940673296
-0.49083553974999994	-0.35687569151111637
-0.49077450459374994	-0.35458939361791564
-0.49071346943749994	-0.35229831985268734
-0.49065243428124994	-0.3500023711943572
-0.49059139912499994	-0.3477014492436089
-0.49053036396874994	-0.34539545996722454
-0.49046932881249994	-0.3430843177252143
-0.49040829365624994	-0.3407679491634086
-0.49034725849999994	-0.33844629666334497
-0.49028622334374994	-0.3361193211237769
-0.49022518818749994	-0.3337870039014686
-0.49016415303124994	-0.33144934816649496
-0.49010311787499994	-0.3291063797289843
-0.49004208271874994	-0.3267581471185697
-0.48998104756249994	-0.324404720896497
-0.48992001240624994	-0.32204619223836467
-0.48985897724999994	-0.31968267094110847
-0.48979794209374994	-0.31731428288027114
-0.48973690693749994	-0.314941166753662
-0.48967587178124994	-0.3125634703848727
-0.48961483662499994	-0.3101813470014675
-0.48955380146874994	-0.30779495134220447
-0.48949276631249994	-0.3054044355397964
-0.48943173115624994	-0.3030099452678313
-0.48937069599999994	-0.300611616248004
-0.48930966084374994	-0.29820957075374277
-0.48924862568749994	-0.29580391420427277
-0.48918759053124994	-0.2933947324326898
-0.48912655537499994	-0.29098208987006297
-0.48906552021874994	-0.28856602833544986
-0.48900448506249994	-0.28614656635691826
-0.48894344990624994	-0.2837236993262698
-0.48888241474999994	-0.2812974006389052
-0.48882137959374994	-0.2788676237339677
-0.48876034443749994	-0.2764343046573872
-0.48869930928124994	-0.2739973647234315
-0.48863827412499994	-0.2715567134731337
-0.48857723896874994	-0.26911225243028447
-0.48851620381249994	-0.26666387952205706
-0.48845516865624994	-0.2642114935186269
-0.48839413349999994	-0.2617549982109492
-0.48833309834374994	-0.2592943064019735
-0.48827206318749994	-0.25682934364167687
-0.48821102803124994	-0.2543600517449942
-0.48814999287499994	-0.25188639194485796
-0.48808895771874994	-0.24940834720860994
-0.48802792256249994	-0.24692592395714055
-0.48796688740624994	-0.24443915344834835
-0.48790585224999994	-0.2419480921257327
-0.48784481709374994	-0.23945282067147008
-0.48778378193749994	-0.2369534425079683
-0.48772274678124994	-0.2344500820890761
-0.48766171162499994	-0.23194288253574757
-0.48760067646874994	-0.22943200243945794
-0.48753964131249994	-0.22691761208443748
-0.48747860615624994	-0.22439988909449654
-0.48741757099999994	-0.2218790136255216
-0.48735653584374994	-0.21935516361508078
-0.48729550068749994	-0.21682851022485813
-0.48723446553124994	-0.21429921335397883
-0.48717343037499994	-0.2117674173234312
-0.48711239521874994	-0.20923324678204122
-0.48705136006249994	-0.2066968030529134
-0.48699032490624994	-0.20415816138253073
-0.48692928974999994	-0.20161736917268977
-0.48686825459374994	-0.19907444511235012
-0.48680721943749994	-0.19652937931638925
-0.48674618428124994	-0.1939821342674621
-0.48668514912499994	-0.19143264644330643
-0.48662411396874994	-0.18888082900835731
-0.48656307881249994	-0.18632657554498247
-0.48650204365624994	-0.1837697643759874
-0.48644100849999994	-0.18121026331081844
-0.48637997334374994	-0.1786479348868356
-0.48631893818749994	-0.1760826420470205
-0.48625790303124994	-0.17351425381499405
-0.48619686787499994	-0.17094265046283444
-0.48613583271874994	-0.16836772827957158
-0.48607479756249994	-0.1657894042653212
-0.48601376240624994	-0.16320762024889987
-0.48595272724999994	-0.16062234583073626
-0.48589169209374994	-0.15803358043340202
-0.48583065693749994	-0.1554413546858532
-0.48576962178124994	-0.15284573086201353
-0.48570858662499994	-0.15024680227633616
-0.48564755146874994	-0.14764469182142828
-0.48558651631249994	-0.1450395497223612
-0.48552548115624994	-0.1424315503155842
-0.48546444599999994	-0.13982088772466408
-0.48540341084374994	-0.13720777073707974
-0.48534237568749994	-0.13459241734431981
-0.48528134053124994	-0.13197504903801952
-0.48522030537499994	-0.12935588469867562
-0.48515927021874994	-0.1267351341167409
-0.48509823506249994	-0.12411299154013039
-0.48503719990624994	-0.12148962990565022
-0.48497616474999994	-0.11886519606797125
-0.48491512959374994	-0.116239806767698
-0.48485409443749994	-0.11361354530624533
-0.48479305928124994	-0.11098645927283661
-0.48473202412499994	-0.10835855968601696
-0.48467098896874994	-0.10572982168122558
-0.48460995381249994	-0.10310018637607453
-0.48454891865624994	-0.1004695636523131
-0.48448788349999994	-0.09783783590530562
-0.48442684834374994	-0.09520486252345396
-0.48436581318749994	-0.09257048496191857
-0.48430477803124994	-0.08993453254443227
-0.48424374287499994	-0.08729682887789592
-0.48418270771874994	-0.0846571985820244
-0.48412167256249994	-0.08201547397912722
-0.48406063740624994	-0.07937150149488459
-0.48399960224999994	-0.07672514787182873
-0.48393856709374994	-0.07407630616139463
-0.48387753193749994	-0.07142490095047578
-0.48381649678124994	-0.06877089246722476
-0.48375546162499994	-0.06611427970393774
-0.48369442646874994	-0.06345510239605567
-0.48363339131249994	-0.06079344126029285
-0.48357235615624994	-0.058129416660704564
-0.48351132099999994	-0.055463186388408046
-0.48345028584374994	-0.052794942061311835
-0.48338925068749994	-0.05012490361460411
-0.48332821553124994	-0.04745331280525863
-0.48326718037499994	-0.04478042654365844
-0.48320614521874994	-0.04210650997197719
-0.48314511006249994	-0.039431829229237964
-0.48308407490624994	-0.03675664409376701
-0.48302303974999994	-0.0340812006417097
-0.48296200459374994	-0.03140572403235605
-0.48290096943749994	-0.02873041168739494
-0.48283993428124994	-0.026055427253217595
-0.48277889912499994	-0.02338089558934554
-0.48271786396874994	-0.02070689888616365
-0.48265682881249994	-0.01803347424543768
-0.48259579365624994	-0.015360612780685007
-0.48253475849999994	-0.012688259963146552
-0.48247372334374994	-0.01001631767841909
-0.48241268818749994	-0.007344648346025885
-0.48235165303124994	-0.0046730804476382976
-0.48229061787499994	-0.0020014149848319204
-0.48222958271874994	0.0006705671419481462
-0.48216854756249994	0.0033430969557065007
-0.48210751240624994	0.00601640871375902
-0.48204647724999994	0.008690731131652472
-0.48198544209374994	0.01136627890678364
-0.48192440693749994	0.014043244645253652
-0.48186337178124994	0.016721791271154755
-0.48180233662499994	0.019402045091158865
-0.48174130146874994	0.02208408964046291
-0.48168026631249994	0.024767960738535696
-0.48161923115624994	0.027453643220135333
-0.48155819599999994	0.030141069499193176
-0.48149716084374994	0.03283012009089327
-0.48143612568749994	0.03552062594122994
-0.48137509053124994	0.03821237239287068
-0.48131405537499994	0.04090510482249509
-0.48125302021874994	0.0435985355558608
-0.48119198506249994	0.046292351593882536
-0.48113094990624994	0.04898622316969807
-0.48106991474999994	0.05167981302301506
-0.48100887959374994	0.05437278600275099
-0.48094784443749994	0.05706481877294799
-0.48088680928124994	0.05975560929404591
-0.48082577412499994	0.06244488560440288
-0.48076473896874994	0.0651324137493765
-0.48070370381249994	0.06781800475472916
-0.48064266865624994	0.07050152015046247
-0.48058163349999994	0.07318287569873995
-0.48052059834374994	0.07586204338996784
-0.48045956318749994	0.07853905160588794
-0.48039852803124994	0.0812139831732757
-0.48033749287499994	0.08388697147581069
-0.48027645771874994	0.08655819523773366
-0.48021542256249994	0.08922787219879189
-0.48015438740624994	0.09189625142766919
-0.48009335224999994	0.0945636043952337
-0.48003231709374994	0.09723021519159827
-0.47997128193749994	0.0998963700037938
-0.47991024678124994	0.10256234621734768
-0.47984921162499994	0.1052284020855492
-0.47978817646874994	0.10789476751840148
-0.47972714131249994	0.1105616358302895
-0.47966610615624994	0.11322915670142177
-0.47960507099999994	0.11589743092585283
-0.47954403584374994	0.11856650693381918
-0.47948300068749994	0.12123637892887658
-0.47942196553124994	0.1239069868747843
-0.47936093037499994	0.12657821862902824
-0.47929989521874994	0.1292499140668573
-0.47923886006249994	0.1319218708835244
-0.47917782490624994	0.1345938521049619
-0.47911678974999994	0.13726559518932796
-0.47905575459374994	0.13993682217871667
-0.47899471943749994	0.14260725039390668
-0.47893368428124994	0.14527660329159617
-0.47887264912499994	0.1479446211646887
-0.47881161396874994	0.15061107141922025
-0.47875057881249994	0.15327575782317931
-0.47868954365624994	0.15593852788197474
-0.47862850849999994	0.1585992777095734
-0.47856747334374994	0.16125795408386337
-0.47850643818749994	0.16391455381101172
-0.47844540303124994	0.16656911775243827
-0.47838436787499994	0.16922171337167696
-0.47832333271874994	0.1718724080127128
-0.47826229756249994	0.17452124604574093
-0.47820126240624994	0.17716823727949604
-0.47814022724999994	0.17981335383842176
-0.47807919209374994	0.18245653167481993
-0.47801815693749994	0.18509767474887592
-0.47795712178124994	0.1877366609775903
-0.47789608662499994	0.19037334956268517
-0.47783505146874994	0.19300758917736788
-0.47777401631249994	0.19563922652645488
-0.47771298115624994	0.1982681148350231
-0.47765194599999994	0.2008941216718764
-0.47759091084374994	0.20351713581706946
-0.47752987568749994	0.20613707321384211
-0.47746884053124994	0.20875388177437665
-0.47740780537499994	0.2113675446551829
-0.47734677021874994	0.21397808188930886
-0.47728573506249994	0.21658555065031082
-0.47722469990624994	0.21919004438504366
-0.47716366474999994	0.22179169047552635
-0.47710262959374994	0.22439064604327544
-0.47704159443749994	0.22698709222710622
-0.47698055928124994	0.22958122772852574
-0.47691952412499994	0.23217326206023509
-0.47685848896874994	0.23476340823939626
-0.47679745381249994	0.23735187481925163
-0.47673641865624994	0.23993885801864595
-0.47667538349999994	0.2425245345435946
-0.47661434834374994	0.24510905488058657
-0.47655331318749994	0.24769253708683828
-0.47649227803124994	0.25027506162495994
-0.47643124287499994	0.2528566675655896
-0.47637020771874994	0.2554373501860549
-0.47630917256249994	0.2580170599726162
-0.47624813740624994	0.2605957028746666
-0.47618710224999994	0.26317314176505374
-0.47612606709374994	0.265749199454121
-0.47606503193749994	0.2683236632728181
-0.47600399678124994	0.27089629073605287
-0.47594296162499994	0.2734668159435916
-0.47588192646874994	0.27603495663860583
-0.47582089131249994	0.27860042183490835
-0.47575985615624994	0.2811629198295978
-0.47569882099999994	0.28372216631505504
-0.47563778584374994	0.28627789217493077
-0.47557675068749994	0.288829850707333
-0.47551571553124994	0.2913778240359638
-0.47545468037499994	0.2939216283541189
-0.47539364521874994	0.29646111808434555
-0.47533261006249994	0.29899618898750385
-0.47527157490624994	0.3015267797988366
-0.47521053974999994	0.3040528724133801
-0.47514950459374994	0.30657449098842854
-0.47508846943749994	0.30909169986565893
-0.47502743428124994	0.31160460005332424
-0.47496639912499994	0.3141133244878829
-0.47490536396874994	0.3166180325332422
-0.47484432881249994	0.3191189038175097
-0.47478329365624994	0.3216161314395184
-0.47472225849999994	0.32410991501197456
-0.47466122334374994	0.3266004538281719
-0.47460018818749994	0.3290879399390811
-0.47453915303124994	0.3315725512868833
-0.47447811787499994	0.33405444546984947
-0.47441708271874994	0.33653375441228595
-0.47435604756249994	0.33901058001709367
-0.47429501240624994	0.34148499079457695
-0.47423397724999994	0.3439570192760915
-0.47417294209374994	0.3464266604248875
-0.47411190693749994	0.34889387145323836
-0.47405087178124994	0.3513585728113102
-0.47398983662499994	0.3538206500513008
-0.47392880146874994	0.3562799568157986
-0.47386776631249994	0.35873631895875757
-0.47380673115624994	0.3611895392431599
-0.47374569599999994	0.36363940226038627
-0.47368466084374994	0.3660856796596285
-0.47362362568749994	0.3685281358092801
-0.47356259053124994	0.37096653375337696
-0.47350155537499994	0.37340064103413895
-0.47344052021874994	0.37583023507332064
-0.47337948506249994	0.3782551081266628
-0.47331844990624994	0.3806750717002785
-0.47325741474999994	0.3830899601431793
-0.47319637959374994	0.38549963346963867
-0.47313534443749994	0.3879039796315983
-0.47307430928124994	0.3903029159435375
-0.47301327412499994	0.3926963892226639
-0.47295223896874994	0.3950843748235807
-0.47289120381249994	0.3974668749439013
-0.47283016865624994	0.3998439162537695
-0.47276913349999994	0.40221554683388333
-0.47270809834374994	0.40458183254075714
-0.47264706318749994	0.4069428529261154
-0.47258602803124994	0.40929869670968483
-0.47252499287499994	0.41164945691368066
-0.47246395771874994	0.41399522610080847
-0.47240292256249994	0.4163360920488925
-0.47234188740624994	0.4186721337412067
-0.47228085224999994	0.42100341756426884
-0.47221981709374994	0.42332999401750904
-0.47215878193749994	0.4256518952741402
-0.47209774678124994	0.4279691335955644
-0.47203671162499994	0.4302817005333346
-0.47197567646874994	0.43258956702274903
-0.47191464131249994	0.43489268423710825
-0.47185360615624994	0.43719098495578745
-0.47179257099999994	0.43948438566272097
-0.47173153584374994	0.44177278945395554
-0.47167050068749994	0.4440560893559259
-0.47160946553124994	0.44633417180956114
-0.47154843037499994	0.4486069202916486
-0.47148739521874994	0.45087421902334374
-0.47142636006249994	0.4531359565160554
-0.47136532490624994	0.4553920286238962
-0.47130428974999994	0.4576423410760172
-0.47124325459374994	0.4598868115435767
-0.47118221943749994	0.46212537112150603
-0.47112118428124994	0.46435796515082417
-0.47106014912499994	0.46658455333035226
-0.47099911396874994	0.4688051090107456
-0.47093807881249994	0.471019617782743
-0.47087704365624994	0.4732280756608676
-0.47081600849999994	0.47543048693920514
-0.47075497334374994	0.47762686160933415
-0.47069393818749994	0.4798172124618659
-0.47063290303124994	0.4820015521731371
-0.47057186787499994	0.48417989046433774
-0.47051083271874994	0.4863522314428066
-0.47044979756249994	0.4885185714741313
