Time	Frequency
-0.5000152512499998	-2.1114992503211368e-21
-0.4999542160937498	-2.109196993085758e-21
-0.4998931809374998	-2.1068701957190005e-21
-0.4998321457812498	-2.104518972966645e-21
-0.4997711106249998	-2.10214338339334e-21
-0.4997100754687498	-2.099743427797907e-21
-0.4996490403124998	-2.0973190492648144e-21
-0.4995880051562498	-2.0948701350079056e-21
-0.4995269699999998	-2.09239652029269e-21
-0.4994659348437498	-2.0898979941123083e-21
-0.4994048996874998	-2.087374306592605e-21
-0.4993438645312498	-2.0848251781358514e-21
-0.4992828293749998	-2.0822503095866324e-21
-0.4992217942187498	-2.079649392704712e-21
-0.4991607590624998	-2.0770221209168698e-21
-0.4990997239062498	-2.0743682003901215e-21
-0.4990386887499998	-2.0716873610026606e-21
-0.4989776535937498	-2.0689793666101132e-21
-0.4989166184374998	-2.066244024025282e-21
-0.4988555832812498	-2.0634811905478096e-21
-0.4987945481249998	-2.0606907800745655e-21
-0.4987335129687498	-2.0578727673964593e-21
-0.4986724778124998	-2.0550271903892523e-21
-0.4986114426562498	-2.0521541502015944e-21
-0.4985504074999998	-2.04925380939678e-21
-0.4984893723437498	-2.0463263877330085e-21
-0.4984283371874998	-2.043372155868025e-21
-0.4983673020312498	-2.0403914278866598e-21
-0.4983062668749998	-2.0373845526060505e-21
-0.4982452317187498	-2.0343519029716455e-21
-0.4981841965624998	-2.031293864060929e-21
-0.4981231614062498	-2.028210820923794e-21
-0.4980621262499998	-2.0251031468869424e-21
-0.4980010910937498	-2.0219711923788426e-21
-0.4979400559374998	-2.0188152742471857e-21
-0.4978790207812498	-2.015635666134204e-21
-0.4978179856249998	-2.0124325905878037e-21
-0.4977569504687498	-2.00920621291309e-21
-0.4976959153124998	-2.0059566365870776e-21
-0.4976348801562498	-2.0026839004873284e-21
-0.4975738449999998	-1.999387978692508e-21
-0.4975128098437498	-1.9960687830335562e-21
-0.4974517746874998	-1.9927261674869104e-21
-0.4973907395312498	-1.9893599340833085e-21
-0.4973297043749998	-1.985969840722766e-21
-0.4972686692187498	-1.9825556104360627e-21
-0.4972076340624998	-1.979116941534138e-21
-0.4971465989062498	-1.97565351870338e-21
-0.4970855637499998	-1.9721650248483612e-21
-0.4970245285937498	-1.9686511530467852e-21
-0.4969634934374998	-1.9651116176793096e-21
-0.4969024582812498	-1.961546164392849e-21
-0.4968414231249998	-1.9579545793243065e-21
-0.4967803879687498	-1.9543366972828635e-21
-0.4967193528124998	-1.9506924083546567e-21
-0.4966583176562498	-1.9470216627678597e-21
-0.4965972824999998	-1.9433244735501104e-21
-0.4965362473437498	-1.939600917165755e-21
-0.4964752121874998	-1.935851132341377e-21
-0.4964141770312498	-1.932075316308192e-21
-0.4963531418749998	-1.928273718799769e-21
-0.4962921067187498	-1.9244466347682685e-21
-0.4962310715624998	-1.920594395608059e-21
-0.4961700364062498	-1.9167173593505117e-21
-0.4961090012499998	-1.9128159009149288e-21
-0.4960479660937498	-1.9088904017970767e-21
-0.4959869309374998	-1.9049412387458766e-21
-0.4959258957812498	-1.9009687726954746e-21
-0.4958648606249998	-1.896973338747229e-21
-0.4958038254687498	-1.8929552370868027e-21
-0.4957427903124998	-1.888914724844328e-21
-0.4956817551562498	-1.884852009264796e-21
-0.4956207199999998	-1.880767242651163e-21
-0.4955596848437498	-1.87666051919517e-21
-0.4954986496874998	-1.8725318734307074e-21
-0.4954376145312498	-1.8683812802970388e-21
-0.4953765793749998	-1.8642086574347007e-21
-0.4953155442187498	-1.860013869413788e-21
-0.4952545090624998	-1.8557967330998823e-21
-0.4951934739062498	-1.851557024756333e-21
-0.4951324387499998	-1.8472944890388663e-21
-0.4950714035937498	-1.8430088489639594e-21
-0.4950103684374998	-1.8386998164221995e-21
-0.4949493332812498	-1.834367102744747e-21
-0.4948882981249998	-1.8300104287244264e-21
-0.4948272629687498	-1.8256295343882615e-21
-0.4947662278124998	-1.8212241885964873e-21
-0.4947051926562498	-1.816794197386001e-21
-0.4946441574999998	-1.812339410651098e-21
-0.4945831223437498	-1.8078597280223817e-21
-0.4945220871874998	-1.8033551038776147e-21
-0.4944610520312498	-1.7988255502027963e-21
-0.4944000168749998	-1.794271137085286e-21
-0.4943389817187498	-1.789691991696088e-21
-0.4942779465624998	-1.785088295986827e-21
-0.4942169114062498	-1.78046028270606e-21
-0.4941558762499998	-1.775808229719402e-21
-0.4940948410937498	-1.7711324533303766e-21
-0.4940338059374998	-1.766433300755172e-21
-0.4939727707812498	-1.761711140924829e-21
-0.4939117356249998	-1.7569663537952902e-21
-0.4938507004687498	-1.7521993196964806e-21
-0.4937896653124998	-1.7474104095318236e-21
-0.4937286301562498	-1.742599975479628e-21
-0.4936675949999998	-1.7377683417319864e-21
-0.4936065598437498	-1.7329157956655118e-21
-0.4935455246874998	-1.7280425804903315e-21
-0.4934844895312498	-1.7231488893047243e-21
-0.4934234543749998	-1.718234860277524e-21
-0.4933624192187498	-1.7133005740548653e-21
-0.4933013840624998	-1.708346053519603e-21
-0.4932403489062498	-1.7033712645609e-21
-0.4931793137499998	-1.6983761179907474e-21
-0.4931182785937498	-1.6933604736984216e-21
-0.4930572434374998	-1.6883241467105798e-21
-0.4929962082812498	-1.6832669143660381e-21
-0.4929351731249998	-1.6781885246746304e-21
-0.4928741379687498	-1.6730887058034793e-21
-0.4928131028124998	-1.6679671759523206e-21
-0.4927520676562498	-1.6628236534422436e-21
-0.4926910324999998	-1.6576578670868033e-21
-0.4926299973437498	-1.6524695663642441e-21
-0.4925689621874998	-1.6472585312897899e-21
-0.4925079270312498	-1.6420245815622495e-21
-0.4924468918749998	-1.6367675841196631e-21
-0.4923858567187498	-1.631487458912923e-21
-0.4923248215624998	-1.626184182848703e-21
-0.4922637864062498	-1.6208577918713892e-21
-0.4922027512499998	-1.6155083813508657e-21
-0.4921417160937498	-1.6101361050300621e-21
-0.4920806809374998	-1.6047411724891644e-21
-0.4920196457812498	-1.5993238443613004e-21
-0.4919586106249998	-1.5938844250482565e-21
-0.4918975754687498	-1.5884232541962136e-21
-0.4918365403124998	-1.582940697849784e-21
-0.4917755051562498	-1.5774371387032988e-21
-0.4917144699999998	-1.5719129654610788e-21
-0.4916534348437498	-1.5663685621520187e-21
-0.4915923996874998	-1.5608042974890065e-21
-0.4915313645312498	-1.5552205144957056e-21
-0.4914703293749998	-1.5496175214990885e-21
-0.4914092942187498	-1.5439955848035964e-21
-0.4913482590624998	-1.538354922031234e-21
-0.4912872239062498	-1.5326956965437002e-21
-0.4912261887499998	-1.5270180147465703e-21
-0.4911651535937498	-1.5213219258538487e-21
-0.4911041184374998	-1.5156074229158657e-21
-0.4910430832812498	-1.5098744455219957e-21
-0.4909820481249998	-1.5041228843576038e-21
-0.4909210129687498	-1.4983525874869456e-21
-0.4908599778124998	-1.4925633684203341e-21
-0.4907989426562498	-1.4867550153005062e-21
-0.4907379074999998	-1.4809273005088929e-21
-0.4906768723437498	-1.4750799904642996e-21
-0.4906158371874998	-1.4692128555664871e-21
-0.4905548020312498	-1.4633256802503774e-21
-0.4904937668749998	-1.4574182725029264e-21
-0.4904327317187498	-1.4514904720074016e-21
-0.4903716965624998	-1.445542156882905e-21
-0.4903106614062498	-1.4395732494313698e-21
-0.4902496262499998	-1.4335837209015686e-21
-0.4901885910937498	-1.4275735946503775e-21
-0.4901275559374998	-1.4215429471637801e-21
-0.4900665207812498	-1.4154919070641622e-21
-0.4900054856249998	-1.4094206523171774e-21
-0.4899444504687498	-1.4033294057811933e-21
-0.4898834153124998	-1.397218429456721e-21
-0.4898223801562498	-1.3910880177458927e-21
-0.4897613449999998	-1.3849384899897805e-21
-0.4897003098437498	-1.3787701824290544e-21
-0.4896392746874998	-1.3725834397163185e-21
-0.4895782395312498	-1.3663786062426773e-21
-0.4895172043749998	-1.3601560172756497e-21
-0.4894561692187498	-1.3539159902737258e-21
-0.4893951340624998	-1.3476588172418152e-21
-0.4893340989062498	-1.3413847581567764e-21
-0.4892730637499998	-1.3350940351891898e-21
-0.4892120285937498	-1.3287868281594027e-21
-0.4891509934374998	-1.3224632716022168e-21
-0.4890899582812498	-1.3161234534711611e-21
-0.4890289231249998	-1.3097674153468687e-21
-0.4889678879687498	-1.3033951540781783e-21
-0.4889068528124998	-1.2970066248738537e-21
-0.4888458176562498	-1.290601745371532e-21
-0.4887847824999998	-1.2841804004807694e-21
-0.4887237473437498	-1.277742448457706e-21
-0.4886627121874998	-1.2712877280943606e-21
-0.4886016770312498	-1.2648160664384484e-21
-0.4885406418749998	-1.2583272866723251e-21
-0.4884796067187498	-1.2518212158927816e-21
-0.4884185715624998	-1.2452976928921647e-21
-0.4883575364062498	-1.2387565756331393e-21
-0.4882965012499998	-1.2321977473421179e-21
-0.4882354660937498	-1.2256211215255997e-21
-0.4881744309374998	-1.2190266469564314e-21
-0.4881133957812498	-1.212414311813586e-21
-0.4880523606249998	-1.2057841460310943e-21
-0.4879913254687498	-1.1991362222810192e-21
-0.4879302903124998	-1.1924706557530613e-21
-0.4878692551562498	-1.185787602609748e-21
-0.4878082199999998	-1.179087257412512e-21
-0.4877471848437498	-1.1723698498182013e-21
-0.4876861496874998	-1.1656356407004079e-21
-0.4876251145312498	-1.1588849175253492e-21
-0.4875640793749998	-1.1521179886070264e-21
-0.4875030442187498	-1.1453351763195534e-21
-0.4874420090624998	-1.138536810103378e-21
-0.4873809739062498	-1.1317232199318953e-21
-0.4873199387499998	-1.124894729530066e-21
-0.4872589035937498	-1.1180516491661056e-21
-0.4871978684374998	-1.1111942691123521e-21
-0.4871368332812498	-1.1043228538418087e-21
-0.4870757981249998	-1.0974376366871994e-21
-0.4870147629687498	-1.0905388149547033e-21
-0.4869537278124998	-1.083626545705715e-21
-0.4868926926562498	-1.0767009431779195e-21
-0.4868316574999998	-1.0697620776077047e-21
-0.4867706223437498	-1.0628099749429277e-21
-0.4867095871874998	-1.0558446184815693e-21
-0.4866485520312498	-1.048865952449141e-21
-0.4865875168749998	-1.0418738860883903e-21
-0.4865264817187498	-1.0348682979301124e-21
-0.4864654465624998	-1.0278490412806478e-21
-0.4864044114062498	-1.020815951256218e-21
-0.4863433762499998	-1.0137688522678685e-21
-0.4862823410937498	-1.0067075652744137e-21
-0.4862213059374998	-9.99631915279641e-22
-0.4861602707812498	-9.925417393163646e-22
-0.4860992356249998	-9.854368943190603e-22
-0.4860382004687498	-9.783172642284353e-22
-0.4859771653124998	-9.711827659580099e-22
-0.4859161301562498	-9.640333540697299e-22
-0.4858550949999998	-9.56869024613659e-22
-0.4857940598437498	-9.496898183844316e-22
-0.4857330246874998	-9.42495822986974e-22
-0.4856719895312498	-9.352871738311709e-22
-0.4856109543749998	-9.280640542441213e-22
-0.4855499192187498	-9.20826693725681e-22
-0.4854888840624998	-9.135753644963731e-22
-0.4854278489062498	-9.063103773898889e-22
-0.4853668137499998	-8.990320765741924e-22
-0.4853057785937498	-8.917408321221283e-22
-0.4852447434374998	-8.84437030912745e-22
-0.4851837082812498	-8.771210671004206e-22
-0.4851226731249998	-8.697933326498767e-22
-0.4850616379687498	-8.62454207748319e-22
-0.4850006028124998	-8.551040509657595e-22
-0.4849395676562498	-8.477431894958625e-22
-0.4848785324999998	-8.403719104267466e-22
-0.4848174973437498	-8.329904538318097e-22
-0.4847564621874998	-8.255990076423565e-22
-0.4846954270312498	-8.181977038071789e-22
-0.4846343918749998	-8.10786615816918e-22
-0.4845733567187498	-8.033657583405169e-22
-0.4845123215624998	-7.959350889072162e-22
-0.4844512864062498	-7.8849451087151655e-22
-0.4843902512499998	-7.81043877475787e-22
-0.4843292160937498	-7.735829974203902e-22
-0.4842681809374998	-7.661116421163082e-22
-0.4842071457812498	-7.586295542995187e-22
-0.4841461106249998	-7.511364581324893e-22
-0.4840850754687498	-7.436320707926084e-22
-0.4840240403124998	-7.361161144136924e-22
-0.4839630051562498	-7.285883276235072e-22
-0.4839019699999998	-7.210484772752365e-22
-0.4838409348437498	-7.134963706326646e-22
-0.4837798996874998	-7.059318667815421e-22
-0.4837188645312498	-6.98354886135609e-22
-0.4836578293749998	-6.90765417725317e-22
-0.4835967942187498	-6.831635240721717e-22
-0.4835357590624998	-6.75549343589245e-22
-0.4834747239062498	-6.679230902016008e-22
-0.4834136887499998	-6.602850503807738e-22
-0.4833526535937498	-6.526355782166837e-22
-0.4832916184374998	-6.449750883120132e-22
-0.4832305832812498	-6.373040470170743e-22
-0.4831695481249998	-6.296229627140764e-22
-0.4831085129687498	-6.219323742271316e-22
-0.4830474778124998	-6.142328372447249e-22
-0.4829864426562498	-6.065249100094486e-22
-0.4829254074999998	-5.9880913832671795e-22
-0.4828643723437498	-5.910860399286765e-22
-0.4828033371874998	-5.833560896382437e-22
-0.4827423020312498	-5.756197058485901e-22
-0.4826812668749998	-5.678772376620094e-22
-0.4826202317187498	-5.601289531745863e-22
-0.4825591965624998	-5.523750307230746e-22
-0.4824981614062498	-5.446155543088698e-22
-0.4824371262499998	-5.368505128357692e-22
-0.4823760910937498	-5.290798023280386e-22
-0.4823150559374998	-5.213032308512181e-22
-0.4822540207812498	-5.1352052618381325e-22
-0.4821929856249998	-5.057313462967347e-22
-0.4821319504687498	-4.979352923697669e-22
-0.4820709153124998	-4.901319233915619e-22
-0.4820098801562498	-4.823207716550305e-22
-0.4819488449999998	-4.745013593662589e-22
-0.4818878098437498	-4.666732166653258e-22
-0.4818267746874998	-4.588359008451478e-22
-0.4817657395312498	-4.509890158419163e-22
-0.4817047043749998	-4.431322304162144e-22
-0.4816436692187498	-4.352652936381982e-22
-0.4815826340624998	-4.27388047525856e-22
-0.4815215989062498	-4.195004374627929e-22
-0.4814605637499998	-4.1160251956309546e-22
-0.4813995285937498	-4.0369446308804264e-22
-0.4813384934374998	-3.957765483247031e-22
-0.4812774582812498	-3.878491613907437e-22
-0.4812164231249998	-3.7991278611508713e-22
-0.4811553879687498	-3.719679936479713e-22
-0.4810943528124998	-3.640154300514595e-22
-0.4810333176562498	-3.5605580116349464e-22
-0.4809722824999998	-3.480898554718384e-22
-0.4809112473437498	-3.4011836492465586e-22
-0.4808502121874998	-3.3214210272278046e-22
-0.4807891770312498	-3.241618203861836e-22
-0.4807281418749998	-3.161782268184204e-22
-0.4806671067187498	-3.081919690237608e-22
-0.4806060715624998	-3.0020361442991213e-22
-0.4805450364062498	-2.922136363773131e-22
-0.4804840012499998	-2.8422240288936748e-22
-0.4804229660937498	-2.7623016800443995e-22
-0.4803619309374998	-2.6823706637780077e-22
-0.4803008957812498	-2.602431116656627e-22
-0.4802398606249998	-2.522481983956601e-22
-0.4801788254687498	-2.4425210767914007e-22
-0.4801177903124998	-2.362545168282954e-22
-0.4800567551562498	-2.282550122122806e-22
-0.4799957199999998	-2.202531056998043e-22
-0.4799346848437498	-2.122482551075894e-22
-0.4798736496874998	-2.042398867938141e-22
-0.4798126145312498	-1.962274178867848e-22
-0.4797515793749998	-1.8821027750677616e-22
-0.4796905442187498	-1.801879269357839e-22
-0.4796295090624998	-1.7215987792066308e-22
-0.4795684739062498	-1.6412570881076442e-22
-0.4795074387499998	-1.5608507902056917e-22
-0.4794464035937498	-1.4803774120866036e-22
-0.4793853684374998	-1.3998354960131332e-22
-0.4793243332812498	-1.31922464112361e-22
-0.4792632981249998	-1.2385455039159907e-22
-0.4792022629687498	-1.1577997498504538e-22
-0.4791412278124998	-1.07698995441172e-22
-0.4790801926562498	-9.961194626265467e-23
-0.4790191574999998	-9.151922171609484e-23
-0.4789581223437498	-8.342125672053669e-23
-0.4788970871874998	-7.531850653154464e-23
-0.4788360520312498	-6.721142505331215e-23
-0.4787750168749998	-5.910044209597204e-23
-0.4787139817187498	-5.098594146539786e-23
-0.4786529465624998	-4.2868242387289286e-23
-0.4785919114062498	-3.474758626607576e-23
-0.4785308762499998	-2.662413030720654e-23
-0.4784698410937498	-1.8497953074385984e-23
-0.4784088059374998	-1.0369085193336203e-23
-0.4783477707812498	-2.237569188665566e-24
-0.4782867356249998	5.896475968949481e-24
-0.4782257004687498	1.4032814449754547e-23
-0.4781646653124998	2.21710815466585e-23
-0.4781036301562498	3.031078940982705e-23
-0.4780425949999998	3.84513429408878e-23
-0.4779815598437498	4.659206297106972e-23
-0.4779205246874998	5.473221429886339e-23
-0.4778594895312498	6.28710365908174e-23
-0.4777984543749998	7.100777700646224e-23
-0.4777374192187498	7.914172254216235e-23
-0.4776763840624998	8.727223021743427e-23
-0.4776153489062498	9.539875460584045e-23
-0.4775543137499998	1.0352087171943973e-22
-0.4774932785937498	1.1163829743705538e-22
-0.4774322434374998	1.1975089990669015e-22
-0.4773712082812498	1.2785870648447902e-22
-0.4773101731249998	1.3596190518997923e-22
-0.4772491379687498	1.440608399960326e-22
-0.4771881028124998	1.5215599988008168e-22
-0.4771270676562498	1.6024800246977494e-22
-0.4770660324999998	1.6833757327764107e-22
-0.4770049973437498	1.7642552136241089e-22
-0.4769439621874998	1.845127117905268e-22
-0.4768829270312498	1.9260003526224706e-22
-0.4768218918749998	2.006883764530555e-22
-0.4767608567187498	2.087785828007209e-22
-0.4766998215624998	2.1687143448085526e-22
-0.4766387864062498	2.24967616466997e-22
-0.4765777512499998	2.33067693972697e-22
-0.4765167160937498	2.411720919349484e-22
-0.4764556809374998	2.492810788073875e-22
-0.4763946457812498	2.5739475552412466e-22
-0.4763336106249998	2.6551305017104606e-22
-0.4762725754687498	2.73635717856773e-22
-0.4762115403124998	2.817623460512089e-22
-0.4761505051562498	2.8989236579986054e-22
-0.4760894699999998	2.9802506774882487e-22
-0.4760284348437498	3.061596222932042e-22
-0.4759673996874998	3.1429510417676303e-22
-0.4759063645312498	3.224305210060308e-22
-0.4758453293749998	3.3056484346778793e-22
-0.4757842942187498	3.3869703514564436e-22
-0.4757232590624998	3.468260816320146e-22
-0.4756622239062498	3.5495101930445466e-22
-0.4756011887499998	3.6307096330943645e-22
-0.4755401535937498	3.7118513287756624e-22
-0.4754791184374998	3.7929287179963425e-22
-0.4754180832812498	3.8739366395896543e-22
-0.4753570481249998	3.954871446571917e-22
-0.4752960129687498	4.0357310700751134e-22
-0.4752349778124998	4.1165150258845226e-22
-0.4751739426562498	4.1972243655583834e-22
-0.4751129074999998	4.2778615790295515e-22
-0.4750518723437498	4.358430455992123e-22
-0.4749908371874998	4.438935905916256e-22
-0.4749298020312498	4.519383735235437e-22
-0.4748687668749998	4.599780392103281e-22
-0.4748077317187498	4.680132698182203e-22
-0.4747466965624998	4.760447582616749e-22
-0.4746856614062498	4.840731820714722e-22
-0.4746246262499998	4.920991778842025e-22
-0.4745635910937498	5.00123317497292e-22
-0.4745025559374998	5.081460861127012e-22
-0.4744415207812498	5.161678634368799e-22
-0.4743804856249998	5.241889091147897e-22
-0.4743194504687498	5.3220935327997375e-22
-0.4742584153124998	5.40229191881227e-22
-0.4741973801562498	5.482482863311076e-22
-0.4741363449999998	5.562663675701368e-22
-0.4740753098437498	5.642830449690737e-22
-0.4740142746874998	5.722978192910746e-22
-0.4739532395312498	5.803100983037385e-22
-0.4738922043749998	5.883192149000491e-22
-0.4738311692187498	5.963244477844438e-22
-0.4737701340624998	6.043250440803033e-22
-0.4737090989062498	6.123202428443633e-22
-0.4736480637499998	6.20309298056626e-22
-0.4735870285937498	6.28291500266808e-22
-0.4735259934374998	6.362661964534517e-22
-0.4734649582812498	6.442328073292395e-22
-0.4734039231249998	6.5219084171371965e-22
-0.4733428879687498	6.601399076914425e-22
-0.4732818528124998	6.680797200199865e-22
-0.4732208176562498	6.760101036128194e-22
-0.4731597824999998	6.83930992929115e-22
-0.4730987473437498	6.918424267611266e-22
-0.4730377121874998	6.99744538931104e-22
-0.4729766770312498	7.076375460704036e-22
-0.4729156418749998	7.155217331718131e-22
-0.4728546067187498	7.233974371723413e-22
-0.4727935715624998	7.3126502814793765e-22
-0.4727325364062498	7.391248887532578e-22
-0.4726715012499998	7.469773938407225e-22
-0.4726104660937498	7.548228907803084e-22
-0.4725494309374998	7.626616803070548e-22
-0.4724883957812498	7.704939988803086e-22
-0.4724273606249998	7.783200037133079e-22
-0.4723663254687498	7.861397609840844e-22
-0.4723052903124998	7.939532374240119e-22
-0.4722442551562498	8.017602954595785e-22
-0.4721832199999998	8.095606920077229e-22
-0.4721221848437498	8.173540812044797e-22
-0.4720611496874998	8.251400213446216e-22
-0.4720001145312498	8.329179854825785e-22
-0.4719390793749998	8.406873751155659e-22
-0.4718780442187498	8.484475368616308e-22
