Time	Frequency
-0.5000305098749998	-1.6445177450300472e-21
-0.49996947471874975	-1.644529193050663e-21
-0.49990843956249975	-1.6445172721876395e-21
-0.49984740440624975	-1.6444819508580727e-21
-0.49978636924999975	-1.6444231915919837e-21
-0.49972533409374975	-1.6443409540149084e-21
-0.49966429893749975	-1.6442351976463578e-21
-0.49960326378124975	-1.6441058844689894e-21
-0.49954222862499975	-1.6439529821323835e-21
-0.49948119346874975	-1.6437764674455895e-21
-0.49942015831249975	-1.6435763281675946e-21
-0.49935912315624975	-1.6433525626948325e-21
-0.49929808799999975	-1.6431051791806803e-21
-0.49923705284374975	-1.6428341942089208e-21
-0.49917601768749975	-1.6425396304555057e-21
-0.49911498253124975	-1.6422215143899635e-21
-0.49905394737499975	-1.641879874029604e-21
-0.49899291221874975	-1.641514735587475e-21
-0.49893187706249975	-1.6411261201800262e-21
-0.49887084190624975	-1.6407140419324628e-21
-0.49880980674999975	-1.6402785067423351e-21
-0.49874877159374975	-1.6398195115469043e-21
-0.49868773643749975	-1.6393370448131589e-21
-0.49862670128124975	-1.6388310880205222e-21
-0.49856566612499975	-1.6383016176829509e-21
-0.49850463096874975	-1.6377486081444825e-21
-0.49844359581249975	-1.6371720351885793e-21
-0.49838256065624975	-1.6365718797570749e-21
-0.49832152549999975	-1.635948130347649e-21
-0.49826049034374975	-1.6353007833525115e-21
-0.49819945518749975	-1.6346298430342126e-21
-0.49813842003124975	-1.6339353222913545e-21
-0.49807738487499975	-1.6332172423370143e-21
-0.49801634971874975	-1.6324756303649903e-21
-0.49795531456249975	-1.6317105168444303e-21
-0.49789427940624975	-1.6309219331200527e-21
-0.49783324424999975	-1.63010990895674e-21
-0.49777220909374975	-1.629274470181113e-21
-0.49771117393749975	-1.6284156363308576e-21
-0.49765013878124975	-1.6275334184139634e-21
-0.49758910362499975	-1.6266278174831615e-21
-0.49752806846874975	-1.6256988244751328e-21
-0.49746703331249975	-1.6247464212887079e-21
-0.49740599815624975	-1.623770582715832e-21
-0.49734496299999975	-1.6227712787698171e-21
-0.49728392784374975	-1.6217484777025934e-21
-0.49722289268749975	-1.6207021501301888e-21
-0.49716185753124975	-1.6196322730146973e-21
-0.49710082237499975	-1.6185388320265484e-21
-0.49703978721874975	-1.6174218229328833e-21
-0.49697875206249975	-1.6162812532957803e-21
-0.49691771690624975	-1.6151171437497595e-21
-0.49685668174999975	-1.6139295272201281e-21
-0.49679564659374975	-1.6127184468240736e-21
-0.49673461143749975	-1.6114839540496555e-21
-0.49667357628124975	-1.6102261061144301e-21
-0.49661254112499975	-1.608944961211084e-21
-0.49655150596874975	-1.607640573538146e-21
-0.49649047081249975	-1.6063129899803921e-21
-0.49642943565624975	-1.604962247406375e-21
-0.49636840049999975	-1.6035883701508093e-21
-0.49630736534374975	-1.6021913692282463e-21
-0.49624633018749975	-1.600771243393944e-21
-0.49618529503124975	-1.599327980759758e-21
-0.49612425987499975	-1.5978615602542325e-21
-0.49606322471874975	-1.5963719537842062e-21
-0.49600218956249975	-1.5948591304244083e-21
-0.49594115440624975	-1.5933230608752016e-21
-0.49588011924999975	-1.5917637204279713e-21
-0.49581908409374975	-1.5901810920096188e-21
-0.49575804893749975	-1.588575169349682e-21
-0.49569701378124975	-1.5869459582519295e-21
-0.49563597862499975	-1.5852934762664809e-21
-0.49557494346874975	-1.583617752330517e-21
-0.49551390831249975	-1.5819188261768424e-21
-0.49545287315624975	-1.5801967466262595e-21
-0.49539183799999975	-1.5784515689236558e-21
-0.49533080284374975	-1.5766833515906535e-21
-0.49526976768749975	-1.574892152849765e-21
-0.49520873253124975	-1.5730780271079173e-21
-0.49514769737499975	-1.571241021844183e-21
-0.49508666221874975	-1.5693811746997828e-21
-0.49502562706249975	-1.5674985113302803e-21
-0.49496459190624975	-1.5655930447504972e-21
-0.49490355674999975	-1.5636647770413013e-21
-0.49484252159374975	-1.561713702769819e-21
-0.49478148643749975	-1.5597398120480832e-21
-0.49472045128124975	-1.5577430934664702e-21
-0.49465941612499975	-1.555723537055436e-21
-0.49459838096874975	-1.5536811366969314e-21
-0.49453734581249975	-1.5516158922115015e-21
-0.49447631065624975	-1.5495278110564591e-21
-0.49441527549999975	-1.5474169102545381e-21
-0.49435424034374975	-1.5452832176515284e-21
-0.49429320518749975	-1.5431267709157617e-21
-0.49423217003124975	-1.5409476155463873e-21
-0.49417113487499975	-1.5387458028300689e-21
-0.49411009971874975	-1.5365213873755017e-21
-0.49404906456249975	-1.5342744237490833e-21
-0.49398802940624975	-1.5320049626356918e-21
-0.49392699424999975	-1.529713048520885e-21
-0.49386595909374975	-1.52739871843253e-21
-0.49380492393749975	-1.5250620002220337e-21
-0.49374388878124975	-1.5227029122677764e-21
-0.49368285362499975	-1.5203214659154469e-21
-0.49362181846874975	-1.5179176690273574e-21
-0.49356078331249975	-1.5154915292100612e-21
-0.49349974815624975	-1.5130430560997028e-21
-0.49343871299999975	-1.5105722628933012e-21
-0.49337767784374975	-1.5080791686319264e-21
-0.49331664268749975	-1.505563801231328e-21
-0.49325560753124975	-1.5030261988837787e-21
-0.49319457237499975	-1.5004664091306432e-21
-0.49313353721874975	-1.4978844869075135e-21
-0.49307250206249975	-1.4952804914192908e-21
-0.49301146690624975	-1.4926544816511159e-21
-0.49295043174999975	-1.4900065128506304e-21
-0.49288939659374975	-1.4873366355211794e-21
-0.49282836143749975	-1.4846448947805793e-21
-0.49276732628124975	-1.4819313280505481e-21
-0.49270629112499975	-1.4791959629491498e-21
-0.49264525596874975	-1.4764388167982982e-21
-0.49258422081249975	-1.473659897047043e-21
-0.49252318565624975	-1.470859204622502e-21
-0.49246215049999975	-1.4680367401276934e-21
-0.49240111534374975	-1.465192508285662e-21
-0.49234008018749975	-1.4623265194509148e-21
-0.49227904503124975	-1.459438790795755e-21
-0.49221800987499975	-1.4565293492030344e-21
-0.49215697471874975	-1.4535982345005867e-21
-0.49209593956249975	-1.450645499758498e-21
-0.49203490440624975	-1.4476712091146748e-21
-0.49197386924999975	-1.4446754352568175e-21
-0.49191283409374975	-1.4416582562740452e-21
-0.49185179893749975	-1.4386197511127653e-21
-0.49179076378124975	-1.4355599939353893e-21
-0.49172972862499975	-1.432479048987631e-21
-0.49166869346874975	-1.4293769675902843e-21
-0.49160765831249975	-1.426253787153729e-21
-0.49154662315624975	-1.4231095310901556e-21
-0.49148558799999975	-1.4199442093203775e-21
-0.49142455284374975	-1.4167578202840046e-21
-0.49136351768749975	-1.413550354373726e-21
-0.49130248253124975	-1.4103217978304277e-21
-0.49124144737499975	-1.4070721373091576e-21
-0.49118041221874975	-1.4038013655743421e-21
-0.49111937706249975	-1.400509486981392e-21
-0.49105834190624975	-1.397196521203736e-21
-0.49099730674999975	-1.39386250617163e-21
-0.49093627159374975	-1.3905075001095644e-21
-0.49087523643749975	-1.3871315800056812e-21
-0.49081420128124975	-1.3837348370523563e-21
-0.49075316612499975	-1.3803173718583673e-21
-0.49069213096874975	-1.3768792892286115e-21
-0.49063109581249975	-1.373420691061367e-21
-0.49057006065624975	-1.3699416682267864e-21
-0.49050902549999975	-1.3664422950059337e-21
-0.49044799034374975	-1.3629226277211619e-21
-0.49038695518749975	-1.359382704042891e-21
-0.49032592003124975	-1.3558225413614783e-21
-0.49026488487499975	-1.352242137468814e-21
-0.49020384971874975	-1.348641475069867e-21
-0.49014281456249975	-1.3450205281992423e-21
-0.49008177940624975	-1.3413792692927154e-21
-0.49002074424999975	-1.3377176769541285e-21
-0.48995970909374975	-1.3340357431250524e-21
-0.48989867393749975	-1.3303334786858959e-21
-0.48983763878124975	-1.3266109180066103e-21
-0.48977660362499975	-1.3228681206524083e-21
-0.48971556846874975	-1.3191051692850687e-21
-0.48965453331249975	-1.3153221670033244e-21
-0.48959349815624975	-1.3115192339879151e-21
-0.48953246299999975	-1.307696501873569e-21
-0.48947142784374975	-1.303854107647698e-21
-0.48941039268749975	-1.299992186710514e-21
-0.48934935753124975	-1.2961108644048352e-21
-0.48928832237499975	-1.2922102477183385e-21
-0.48922728721874975	-1.2882904193228139e-21
-0.48916625206249975	-1.2843514353552988e-21
-0.48910521690624975	-1.2803933255073619e-21
-0.48904418174999975	-1.276416094470222e-21
-0.48898314659374975	-1.2724197263730394e-21
-0.48892211143749975	-1.2684041915765022e-21
-0.48886107628124975	-1.2643694533038398e-21
-0.48880004112499975	-1.2603154741495537e-21
-0.48873900596874975	-1.2562422242914575e-21
-0.48867797081249975	-1.2521496915762591e-21
-0.48861693565624975	-1.2480378898538108e-21
-0.48855590049999975	-1.2439068619560112e-21
-0.48849486534374975	-1.2397566793621607e-21
-0.48843383018749975	-1.235587440906158e-21
-0.48837279503124975	-1.2313992691597119e-21
-0.48831175987499975	-1.2271923050598395e-21
-0.48825072471874975	-1.222966700744308e-21
-0.48818968956249975	-1.21872260948241e-21
-0.48812865440624975	-1.2144601765083007e-21
-0.48806761924999975	-1.2101795320499614e-21
-0.48800658409374975	-1.2058807832464663e-21
-0.48794554893749975	-1.2015640070527553e-21
-0.48788451378124975	-1.197229248707268e-21
-0.48782347862499975	-1.1928765245751953e-21
-0.48776244346874975	-1.1885058253709691e-21
-0.48770140831249975	-1.1841171201918097e-21
-0.48764037315624975	-1.179710364759514e-21
-0.48757933799999975	-1.17528551305087e-21
-0.48751830284374975	-1.1708425285833772e-21
-0.48745726768749975	-1.1663813933836014e-21
-0.48739623253124975	-1.1619021139662439e-21
-0.48733519737499975	-1.1574047257228809e-21
-0.48727416221874975	-1.1528892970499953e-21
-0.48721312706249975	-1.1483559303524957e-21
-0.48715209190624975	-1.1438047590410344e-21
-0.48709105674999975	-1.1392359429050942e-21
-0.48703002159374975	-1.1346496601249867e-21
-0.48696898643749975	-1.1300460948012509e-21
-0.48690795128124975	-1.1254254238832184e-21
-0.48684691612499975	-1.1207878064784854e-21
-0.48678588096874975	-1.1161333755151278e-21
-0.48672484581249975	-1.111462231333166e-21
-0.48666381065624975	-1.1067744375178896e-21
-0.48660277549999975	-1.1020700197729254e-21
-0.48654174034374975	-1.0973489689937102e-21
-0.48648070518749975	-1.0926112483306149e-21
-0.48641967003124975	-1.0878568027725674e-21
-0.48635863487499975	-1.0830855703746551e-21
-0.48629759971874975	-1.0782974938286894e-21
-0.48623656456249975	-1.0734925313866668e-21
-0.48617552940624975	-1.068670667880149e-21
-0.48611449424999975	-1.0638319245265395e-21
-0.48605345909374975	-1.0589763642645883e-21
-0.48599242393749975	-1.0541040931257468e-21
-0.48593138878124975	-1.049215258466508e-21
-0.48587035362499975	-1.0443100422465227e-21
-0.48580931846874975	-1.039388650662415e-21
-0.48574828331249975	-1.034451301955552e-21
-0.48568724815624975	-1.0294982119513852e-21
-0.48562621299999975	-1.0245295796958788e-21
-0.48556517784374975	-1.0195455756092846e-21
-0.48550414268749975	-1.0145463319942996e-21
-0.48544310753124975	-1.0095319366108484e-21
-0.48538207237499975	-1.0045024301886905e-21
-0.48532103721874975	-9.994578087751341e-22
-0.48526000206249975	-9.943980313514941e-22
-0.48519896690624975	-9.893230311926175e-22
-0.48513793174999975	-9.842327296365593e-22
-0.48507689659374975	-9.791270508788068e-22
-0.48501586143749975	-9.740059366129012e-22
-0.48495482628124975	-9.688693601464817e-22
-0.48489379112499975	-9.637173380554024e-22
-0.48483275596874975	-9.58549936745208e-22
-0.48477172081249975	-9.53367272664747e-22
-0.48471068565624975	-9.481695071968818e-22
-0.48464965049999975	-9.42956838485102e-22
-0.48458861534374975	-9.37729490474637e-22
-0.48452758018749975	-9.324876982654508e-22
-0.48446654503124975	-9.27231691578961e-22
-0.48440550987499975	-9.219616790231793e-22
-0.48434447471874975	-9.166778335621665e-22
-0.48428343956249975	-9.113802812027062e-22
-0.48422240440624975	-9.06069095626104e-22
-0.48416136924999975	-9.007442971870603e-22
-0.48410033409374975	-8.954058557800594e-22
-0.48403929893749975	-8.900537003609129e-22
-0.48397826378124975	-8.846877339670143e-22
-0.48391722862499975	-8.793078507840975e-22
-0.48385619346874975	-8.739139540683294e-22
-0.48379515831249975	-8.68505973210181e-22
-0.48373412315624975	-8.630838777288335e-22
-0.48367308799999975	-8.576476877999411e-22
-0.48361205284374975	-8.52197481289153e-22
-0.48355101768749975	-8.467333958339672e-22
-0.48348998253124975	-8.412556239205801e-22
-0.48342894737499975	-8.357644003184095e-22
-0.48336791221874975	-8.3025998467105375e-22
-0.48330687706249975	-8.247426433054054e-22
-0.48324584190624975	-8.192126308310409e-22
-0.48318480674999975	-8.136701718457765e-22
-0.48312377159374975	-8.081154451650457e-22
-0.48306273643749975	-8.025485718770797e-22
-0.48300170128124975	-7.969696088943944e-22
-0.48294066612499975	-7.913785492537901e-22
-0.48287963096874975	-7.857753295214088e-22
-0.48281859581249975	-7.801598444692649e-22
-0.48275756065624975	-7.745319659032605e-22
-0.48269652549999975	-7.688915629313188e-22
-0.48263549034374975	-7.632385221713915e-22
-0.48257445518749975	-7.575727661268385e-22
-0.48251342003124975	-7.518942704007585e-22
-0.48245238487499975	-7.462030771633187e-22
-0.48239134971874975	-7.4049929992967805e-22
-0.48233031456249975	-7.347831201924631e-22
-0.48226927940624975	-7.290547778877019e-22
-0.48220824424999975	-7.233145553068425e-22
-0.48214720909374975	-7.175627552114234e-22
-0.48208617393749975	-7.117996769807716e-22
-0.48202513878124975	-7.060255945193817e-22
-0.48196410362499975	-7.0024073671152155e-22
-0.48190306846874975	-6.9444527131254645e-22
-0.48184203331249975	-6.8863929466073385e-22
-0.48178099815624975	-6.828228283778475e-22
-0.48171996299999975	-6.769958234572993e-22
-0.48165892784374975	-6.711581718390975e-22
-0.48159789268749975	-6.653097246488522e-22
-0.48153685753124975	-6.594503159286982e-22
-0.48147582237499975	-6.5357978833019235e-22
-0.48141478721874975	-6.476980168713526e-22
-0.48135375206249975	-6.418049306548485e-22
-0.48129271690624975	-6.359005315661198e-22
-0.48123168174999975	-6.299849053203751e-22
-0.48117064659374975	-6.240582220697238e-22
-0.48110961143749975	-6.18120727467645e-22
-0.48104857628124975	-6.121727262900625e-22
-0.48098754112499975	-6.062145609356239e-22
-0.48092650596874975	-6.002465858797702e-22
-0.48086547081249975	-5.942691391569622e-22
-0.48080443565624975	-5.882825136097829e-22
-0.48074340049999975	-5.822869312619173e-22
-0.48068236534374975	-5.762825265393772e-22
-0.48062133018749975	-5.702693415391123e-22
-0.48056029503124975	-5.642473299383183e-22
-0.48049925987499975	-5.58216368463408e-22
-0.48043822471874975	-5.521762771299089e-22
-0.48037718956249975	-5.4612684558751215e-22
-0.48031615440624975	-5.400678633003338e-22
-0.48025511924999975	-5.339991526811625e-22
-0.48019408409374975	-5.279206001447072e-22
-0.48013304893749975	-5.218321779876929e-22
-0.48007201378124975	-5.157339556885538e-22
-0.48001097862499975	-5.096261030288336e-22
-0.47994994346874975	-5.035088841429936e-22
-0.47988890831249975	-4.973826406772551e-22
-0.47982787315624975	-4.912477667043143e-22
-0.47976683799999975	-4.851046791159384e-22
-0.47970580284374975	-4.78953783953171e-22
-0.47964476768749975	-4.727954411985512e-22
-0.47958373253124975	-4.666299348933097e-22
-0.47952269737499975	-4.604574522797072e-22
-0.47946166221874975	-4.542780715196065e-22
-0.47940062706249975	-4.480917595838676e-22
-0.47933959190624975	-4.4189838338692035e-22
-0.47927855674999975	-4.356977326207813e-22
-0.47921752159374975	-4.294895491305727e-22
-0.47915648643749975	-4.232735603612606e-22
-0.47909545128124975	-4.17049514980778e-22
-0.47903441612499975	-4.108172163841098e-22
-0.47897338096874975	-4.045765512019543e-22
-0.47891234581249975	-3.983275105160077e-22
-0.47885131065624975	-3.920702001245377e-22
-0.47879027549999975	-3.858048389873567e-22
-0.47872924034374975	-3.795317478450693e-22
-0.47866820518749975	-3.732513283996295e-22
-0.47860717003124975	-3.669640333619628e-22
-0.47854613487499975	-3.606703307795605e-22
-0.47848509971874975	-3.5437066725689337e-22
-0.47842406456249975	-3.480654339616777e-22
-0.47836302940624975	-3.4175493842562953e-22
-0.47830199424999975	-3.3543938436425615e-22
-0.47824095909374975	-3.2911886123378866e-22
-0.47817992393749975	-3.2279334394800142e-22
-0.47811888878124975	-3.164627024747293e-22
-0.47805785362499975	-3.1012672167562335e-22
-0.47799681846874975	-3.0378513139851897e-22
-0.47793578331249975	-2.974376431955921e-22
-0.47787474815624975	-2.9108398632480615e-22
-0.47781371299999975	-2.8472393994722504e-22
-0.47775267784374975	-2.7835736298263034e-22
-0.47769164268749975	-2.7198421880993897e-22
-0.47763060753124975	-2.6560458922218136e-22
-0.47756957237499975	-2.5921867560695327e-22
-0.47750853721874975	-2.528267888786794e-22
-0.47744750206249975	-2.464293302769742e-22
-0.47738646690624975	-2.400267641421407e-22
-0.47732543174999975	-2.336195839105532e-22
-0.47726439659374975	-2.2720827470886112e-22
-0.47720336143749975	-2.207932769897009e-22
-0.47714232628124975	-2.143749536993152e-22
-0.47708129112499975	-2.0795356288117465e-22
-0.47702025596874975	-2.0152924003493866e-22
-0.47695922081249975	-1.9510199371922213e-22
-0.47689818565624975	-1.8867171364636714e-22
-0.47683715049999975	-1.8223818863245742e-22
-0.47677611534374975	-1.758011321833332e-22
-0.47671508018749975	-1.6936021513092378e-22
-0.47665404503124975	-1.6291510420292627e-22
-0.47659300987499975	-1.5646550203253813e-22
-0.47653197471874975	-1.500111847908857e-22
-0.47647093956249975	-1.4355203470428074e-22
-0.47640990440624975	-1.3708806273728468e-22
-0.47634886924999975	-1.3061941777824738e-22
-0.47628783409374975	-1.2414638238172675e-22
-0.47622679893749975	-1.1766935764104794e-22
-0.47616576378124975	-1.1118883796488955e-22
-0.47610472862499975	-1.0470537556237266e-22
-0.47604369346874975	-9.821953824033434e-23
-0.47598265831249975	-9.173186536702931e-23
-0.47592162315624975	-8.52428261799181e-23
-0.47586058799999975	-7.875278336423399e-23
-0.47579955284374975	-7.226196469452075e-23
-0.47573851768749975	-6.577044837587151e-23
-0.47567748253124975	-5.927816390579329e-23
-0.47561644737499975	-5.278490499596177e-23
-0.47555541221874975	-4.6290354488720453e-23
-0.47549437706249975	-3.979412163694124e-23
-0.47543334190624975	-3.329578668355707e-23
-0.47537230674999975	-2.679494824407177e-23
-0.47531127159374975	-2.029127088011571e-23
-0.47525023643749975	-1.378452648459736e-23
-0.47518920128124975	-7.274622855146725e-24
-0.47512816612499975	-7.616178905864462e-25
-0.47506713096874975	5.754279390246076e-24
-0.47500609581249975	1.227272151004468e-23
-0.47494506065624975	1.879325102782285e-23
-0.47488402549999975	2.5315343099537538e-23
-0.47482299034374975	3.1838455218071964e-23
-0.47476195518749975	3.836207750801572e-23
-0.47470092003124975	4.488577988781728e-23
-0.47463988487499975	5.140925031008438e-23
-0.47457884971874975	5.793231017383974e-23
-0.47451781456249975	6.445489058149034e-23
-0.47445677940624975	7.097697041640575e-23
-0.47439574424999975	7.749850865005529e-23
-0.47433470909374975	8.401940922045961e-23
-0.47427367393749975	9.053952396389343e-23
-0.47421263878124975	9.705867538621909e-23
-0.47415160362499975	1.0357668568300712e-22
-0.47409056846874975	1.1009340487815107e-22
-0.47402953331249975	1.166087326537179e-22
-0.47396849815624975	1.2312263226670333e-22
-0.47390746299999975	1.296351371858349e-22
-0.47384642784374975	1.361463490058601e-22
-0.47378539268749975	1.4265642546913518e-22
-0.47372435753124975	1.491655617715853e-22
-0.47366332237499975	1.556739686441751e-22
-0.47360228721874975	1.6218184752588143e-22
-0.47354125206249975	1.686893648016261e-22
-0.47348021690624975	1.7519662975019901e-22
-0.47341918174999975	1.8170367963198668e-22
-0.47335814659374975	1.8821047348218687e-22
-0.47329711143749975	1.9471689263639197e-22
-0.47323607628124975	2.012227461167903e-22
-0.47317504112499975	2.0772778330764555e-22
-0.47311400596874975	2.1423171252293206e-22
-0.47305297081249975	2.2073422087694413e-22
-0.47299193565624975	2.2723499507129063e-22
-0.47293090049999975	2.337337424296147e-22
-0.47286986534374975	2.4023020946333693e-22
-0.47280883018749975	2.4672419498166604e-22
-0.47274779503124975	2.532155562455366e-22
-0.47268675987499975	2.597042096172374e-22
