Time	Frequency
-0.5000170844375003	-0.7926141881429819
-0.49995604928125026	-0.7930237058526991
-0.49989501412500026	-0.7934210177000861
-0.49983397896875026	-0.7938061785918742
-0.49977294381250026	-0.7941792470826315
-0.49971190865625026	-0.79454028360385
-0.49965087350000026	-0.794889348603196
-0.49958983834375026	-0.7952265006551258
-0.49952880318750026	-0.7955517946744222
-0.49946776803125026	-0.7958652802890129
-0.49940673287500026	-0.7961670003544099
-0.49934569771875026	-0.7964569896428255
-0.49928466256250026	-0.7967352737474409
-0.49922362740625026	-0.7970018682220719
-0.49916259225000026	-0.7972567780208315
-0.49910155709375026	-0.7974999972562976
-0.49904052193750026	-0.7977315092289219
-0.49897948678125026	-0.7979512867344095
-0.49891845162500026	-0.7981592926778217
-0.49885741646875026	-0.7983554809641014
-0.49879638131250026	-0.7985397975883239
-0.49873534615625026	-0.798712181900738
-0.49867431100000026	-0.7988725680754776
-0.49861327584375026	-0.7990208867258731
-0.49855224068750026	-0.7991570665950295
-0.49849120553125026	-0.7992810363068862
-0.49843017037500026	-0.7993927261102258
-0.49836913521875026	-0.799492069569358
-0.49830810006250026	-0.7995790051845272
-0.49824706490625026	-0.7996534778255002
-0.49818602975000026	-0.7997154399153615
-0.49812499459375026	-0.7997648524530476
-0.49806395943750026	-0.7998016858743137
-0.49800292428125026	-0.799825920636211
-0.49794188912500026	-0.7998375474970033
-0.49788085396875026	-0.7998365675078961
-0.49781981881250026	-0.799822991728659
-0.49775878365625026	-0.7997968407010141
-0.49769774850000026	-0.7997581436782526
-0.49763671334375026	-0.7997069376150652
-0.49757567818750026	-0.7996432659535242
-0.49751464303125026	-0.7995671772352209
-0.49745360787500026	-0.7994787236098132
-0.49739257271875026	-0.7993779593363128
-0.49733153756250026	-0.7992649392957432
-0.49727050240625026	-0.7991397174666255
-0.49720946725000026	-0.7990023453670573
-0.49714843209375026	-0.7988528705587483
-0.49708739693750026	-0.7986913353303464
-0.49702636178125026	-0.7985177756040907
-0.49696532662500026	-0.7983322200058826
-0.49690429146875026	-0.7981346890997943
-0.49684325631250026	-0.7979251948876898
-0.49678222115625026	-0.797703740582055
-0.49672118600000026	-0.7974703206325601
-0.49666015084375026	-0.7972249209920023
-0.49659911568750026	-0.7969675195457607
-0.49653808053125026	-0.7966980867409342
-0.49647704537500026	-0.7964165865084545
-0.49641601021875026	-0.7961229773944263
-0.49635497506250026	-0.7958172137613558
-0.49629393990625026	-0.7954992471056294
-0.49623290475000026	-0.7951690275529864
-0.49617186959375026	-0.7948265053804807
-0.49611083443750026	-0.7944716324199195
-0.49604979928125026	-0.7941043633564667
-0.49598876412500026	-0.7937246569863831
-0.49592772896875026	-0.7933324774330243
-0.49586669381250026	-0.7929277952031202
-0.49580565865625026	-0.7925105880089145
-0.49574462350000026	-0.7920808413694889
-0.49568358834375026	-0.7916385490181469
-0.49562255318750026	-0.7911837131679262
-0.49556151803125026	-0.7907163445614337
-0.49550048287500026	-0.7902364622199076
-0.49543944771875026	-0.7897440929981364
-0.49537841256250026	-0.7892392709603705
-0.49531737740625026	-0.788722036528568
-0.49525634225000026	-0.7881924355211454
-0.49519530709375026	-0.7876505180941549
-0.49513427193750026	-0.7870963374773376
-0.49507323678125026	-0.7865299485987278
-0.49501220162500026	-0.785951406800763
-0.49495116646875026	-0.7853607666132091
-0.49489013131250026	-0.7847580803982959
-0.49482909615625026	-0.7841433970514889
-0.49476806100000026	-0.7835167610086867
-0.49470702584375026	-0.7828782113414787
-0.49464599068750026	-0.7822277808939528
-0.49458495553125026	-0.781565495686561
-0.49452392037500026	-0.7808913744353175
-0.49446288521875026	-0.7802054280905764
-0.49440185006250026	-0.7795076596749722
-0.49434081490625026	-0.7787980645351786
-0.49427977975000026	-0.7780766308060899
-0.49421874459375026	-0.7773433398992315
-0.49415770943750026	-0.7765981670845108
-0.49409667428125026	-0.7758410822521183
-0.49403563912500026	-0.7750720508086079
-0.49397460396875026	-0.7742910347419533
-0.49391356881250026	-0.7734979938540596
-0.49385253365625026	-0.7726928870128464
-0.49379149850000026	-0.7718756732910735
-0.49373046334375026	-0.771046313051615
-0.49366942818750026	-0.770204769112105
-0.49360839303125026	-0.7693510079287601
-0.49354735787500026	-0.7684850006649928
-0.49348632271875026	-0.7676067240614295
-0.49342528756250026	-0.7667161611609808
-0.49336425240625026	-0.7658133019748301
-0.49330321725000026	-0.7648981439277132
-0.49324218209375026	-0.7639706919990031
-0.49318114693750026	-0.7630309587712248
-0.49312011178125026	-0.7620789644865928
-0.49305907662500026	-0.7611147368949868
-0.49299804146875026	-0.7601383107467877
-0.49293700631250026	-0.759149727165433
-0.49287597115625026	-0.7581490329999387
-0.49281493600000026	-0.7571362799507436
-0.49275390084375026	-0.756111523471468
-0.49269286568750026	-0.755074821616046
-0.49263183053125026	-0.754026233969543
-0.49257079537500026	-0.7529658206682283
-0.49250976021875026	-0.7518936412932151
-0.49244872506250026	-0.7508097536197986
-0.49238768990625026	-0.7497142125307468
-0.49232665475000026	-0.748607069140253
-0.49226561959375026	-0.7474883699201499
-0.49220458443750026	-0.7463581559060396
-0.49214354928125026	-0.7452164621464342
-0.49208251412500026	-0.7440633172739897
-0.49202147896875026	-0.7428987431449783
-0.49196044381250026	-0.7417227547647487
-0.49189940865625026	-0.7405353605259161
-0.49183837350000026	-0.7393365625445926
-0.49177733834375026	-0.7381263570495984
-0.49171630318750026	-0.7369047348551608
-0.49165526803125026	-0.7356716819258564
-0.49159423287500026	-0.7344271801408885
-0.49153319771875026	-0.7331712082461156
-0.49147216256250026	-0.7319037428821666
-0.49141112740625026	-0.730624759688497
-0.49135009225000026	-0.7293342344085703
-0.49128905709375026	-0.7280321438622008
-0.49122802193750026	-0.7267184668435066
-0.49116698678125026	-0.7253931850827724
-0.49110595162500026	-0.7240562842226524
-0.49104491646875026	-0.7227077546229985
-0.49098388131250026	-0.7213475919539886
-0.49092284615625026	-0.7199757976817174
-0.49086181100000026	-0.7185923794894062
-0.49080077584375026	-0.7171973515638486
-0.49073974068750026	-0.7157907346817018
-0.49067870553125026	-0.7143725561354556
-0.49061767037500026	-0.7129428495245017
-0.49055663521875026	-0.7115016543637357
-0.49049560006250026	-0.7100490154888813
-0.49043456490625026	-0.7085849822911212
-0.49037352975000026	-0.707109607850078
-0.49031249459375026	-0.7056229480720004
-0.49025145943750026	-0.7041250608706453
-0.49019042428125026	-0.7026160053044581
-0.49012938912500026	-0.7010958406639534
-0.49006835396875026	-0.6995646255099005
-0.49000731881250026	-0.6980224165724982
-0.48994628365625026	-0.6964692676083902
-0.48988524850000026	-0.6949052283865026
-0.48982421334375026	-0.6933303438649036
-0.48976317818750026	-0.6917446536165552
-0.48970214303125026	-0.690148191450998
-0.48964110787500026	-0.688540985100765
-0.48958007271875026	-0.6869230559076522
-0.48951903756250026	-0.6852944185626391
-0.48945800240625026	-0.6836550810762746
-0.48939696725000026	-0.6820050450451872
-0.48933593209375026	-0.680344306160038
-0.48927489693750026	-0.6786728549004163
-0.48921386178125026	-0.6769906773032871
-0.48915282662500026	-0.6752977557166446
-0.48909179146875026	-0.6735940696386651
-0.48903075631250026	-0.6718795968510055
-0.48896972115625026	-0.6701543147360177
-0.48890868600000026	-0.668418201471033
-0.48884765084375026	-0.6666712371852312
-0.48878661568750026	-0.6649134051657056
-0.48872558053125026	-0.663144692935617
-0.48866454537500026	-0.6613650933045483
-0.48860351021875026	-0.6595746054452328
-0.48854247506250026	-0.6577732356928697
-0.48848143990625026	-0.6559609979680888
-0.48842040475000026	-0.6541379140567707
-0.48835936959375026	-0.6523040138934525
-0.48829833443750026	-0.6504593356872095
-0.48823729928125026	-0.6486039257317965
-0.48817626412500026	-0.6467378379754565
-0.48811522896875026	-0.6448611333927773
-0.48805419381250026	-0.6429738791170669
-0.48799315865625026	-0.6410761473629447
-0.48793212350000026	-0.6391680142613043
-0.48787108834375026	-0.6372495586842006
-0.48781005318750026	-0.6353208608745771
-0.48774901803125026	-0.6333820008560359
-0.48768798287500026	-0.6314330570245478
-0.48762694771875026	-0.6294741049365349
-0.48756591256250026	-0.6275052159426094
-0.48750487740625026	-0.625526455781838
-0.48744384225000026	-0.6235378834335163
-0.48738280709375026	-0.6215395503296521
-0.48732177193750026	-0.6195314998204822
-0.48726073678125026	-0.6175137666221489
-0.48719970162500026	-0.6154863764063332
-0.48713866646875026	-0.6134493458621011
-0.48707763131250026	-0.6114026830789104
-0.48701659615625026	-0.6093463880637452
-0.48695556100000026	-0.6072804535280586
-0.48689452584375026	-0.6052048660043521
-0.48683349068750026	-0.6031196070234561
-0.48677245553125026	-0.6010246543257091
-0.48671142037500026	-0.5989199833649876
-0.48665038521875026	-0.5968055689627538
-0.48658935006250026	-0.5946813868842843
-0.48652831490625026	-0.5925474154392985
-0.48646727975000026	-0.5904036371707103
-0.48640624459375026	-0.5882500404399386
-0.48634520943750026	-0.5860866207331161
-0.48628417428125026	-0.5839133817660975
-0.48622313912500026	-0.5817303364248017
-0.48616210396875026	-0.5795375074815453
-0.48610106881250026	-0.5773349280341661
-0.48604003365625026	-0.5751226414900067
-0.48597899850000026	-0.5729007012012756
-0.48591796334375026	-0.5706691700423836
-0.48585692818750026	-0.5684281197641144
-0.48579589303125026	-0.5661776298738869
-0.48573485787500026	-0.5639177861824316
-0.48567382271875026	-0.5616486792465754
-0.48561278756250026	-0.5593704026758441
-0.48555175240625026	-0.5570830511992613
-0.48549071725000026	-0.5547867187207265
-0.48542968209375026	-0.5524814965843793
-0.48536864693750026	-0.5501674718542713
-0.48530761178125026	-0.5478447255326919
-0.48524657662500026	-0.5455133308847842
-0.48518554146875026	-0.5431733520164213
-0.48512450631250026	-0.5408248428510173
-0.48506347115625026	-0.538467846405006
-0.48500243600000026	-0.5361023943209402
-0.48494140084375026	-0.5337285068241077
-0.48488036568750026	-0.5313461930043022
-0.48481933053125026	-0.5289554513774369
-0.48475829537500026	-0.5265562708624906
-0.48469726021875026	-0.5241486320858532
-0.48463622506250026	-0.521732508905029
-0.48457518990625026	-0.5193078701453221
-0.48451415475000026	-0.5168746815209302
-0.48445311959375026	-0.5144329078285332
-0.48439208443750026	-0.5119825153257579
-0.48433104928125026	-0.5095234739093311
-0.48427001412500026	-0.5070557590258085
-0.48420897896875026	-0.5045793535028177
-0.48414794381250026	-0.5020942493491762
-0.48408690865625026	-0.4996004493509525
-0.48402587350000026	-0.4970979681594132
-0.48396483834375026	-0.4945868329553182
-0.48390380318750026	-0.49206708389429277
-0.48384276803125026	-0.4895387742160285
-0.48378173287500026	-0.4870019699695329
-0.48372069771875026	-0.484456749299957
-0.48365966256250026	-0.48190320132320796
-0.48359862740625026	-0.4793414248714626
-0.48353759225000026	-0.47677152701573666
-0.48347655709375026	-0.4741936211272764
-0.48341552193750026	-0.47160782465120726
-0.48335448678125026	-0.46901425675093167
-0.48329345162500026	-0.4664130359218794
-0.48323241646875026	-0.46380427772444277
-0.48317138131250026	-0.46118809262278815
-0.48311034615625026	-0.45856458388144955
-0.48304931100000026	-0.4559338455507825
-0.48298827584375026	-0.45329596065858885
-0.48292724068750026	-0.4506509998007034
-0.48286620553125026	-0.44799902012627124
-0.48280517037500026	-0.44534006460392717
-0.48274413521875026	-0.44267416176228763
-0.48268310006250026	-0.4400013260314264
-0.48262206490625026	-0.43732155842409176
-0.48256102975000026	-0.43463484738480174
-0.48249999459375026	-0.43194116992377624
-0.48243895943750026	-0.4292404931877619
-0.48237792428125026	-0.4265327764734575
-0.48231688912500026	-0.4238179735434806
-0.48225585396875026	-0.4210960350400149
-0.48219481881250026	-0.4183669108895575
-0.48213378365625026	-0.4156305526628606
-0.48207274850000026	-0.4128869159473393
-0.48201171334375026	-0.4101359628002658
-0.48195067818750026	-0.40737766402691655
-0.48188964303125026	-0.40461200111205786
-0.48182860787500026	-0.4018389678609364
-0.48176757271875026	-0.39905857171085884
-0.48170653756250026	-0.39627083467107843
-0.48164550240625026	-0.3934757937613136
-0.48158446725000026	-0.39067350102654824
-0.48152343209375026	-0.38786402342505766
-0.48146239693750026	-0.38504744235442984
-0.48140136178125026	-0.3822238524770942
-0.48134032662500026	-0.3793933600820087
-0.48127929146875026	-0.37655608119394585
-0.48121825631250026	-0.37371213942171355
-0.48115722115625026	-0.3708616637776522
-0.48109618600000026	-0.3680047865595295
-0.48103515084375026	-0.3651416409089394
-0.48097411568750026	-0.3622723579912052
-0.48091308053125026	-0.3593970642860997
-0.48085204537500026	-0.3565158792739412
-0.48079101021875026	-0.3536289134496825
-0.48072997506250026	-0.35073626649787837
-0.48066893990625026	-0.34783802565009203
-0.48060790475000026	-0.34493426435758523
-0.48054686959375026	-0.3420250412754351
-0.48048583443750026	-0.33911039971801726
-0.48042479928125026	-0.33619036771067684
-0.48036376412500026	-0.33326495847034676
-0.48030272896875026	-0.3303341712316777
-0.48024169381250026	-0.32739799242476314
-0.48018065865625026	-0.3244563972029791
-0.48011962350000026	-0.32150935131558084
-0.48005858834375026	-0.31855681328900404
-0.47999755318750026	-0.3155987368919061
-0.47993651803125026	-0.3126350737218116
-0.47987548287500026	-0.3096657757324906
-0.47981444771875026	-0.3066907977978031
-0.47975341256250026	-0.30371010038312385
-0.47969237740625026	-0.3007236521189477
-0.47963134225000026	-0.2977314320430802
-0.47957030709375026	-0.29473343145219855
-0.47950927193750026	-0.2917296554233543
-0.47944823678125026	-0.28872012395889385
-0.47938720162500026	-0.2857048726957692
-0.47932616646875026	-0.2826839532503716
-0.47926513131250026	-0.2796574331823554
-0.47920409615625026	-0.2766253955070639
-0.47914306100000026	-0.27358793777089135
-0.47908202584375026	-0.27054517067817
-0.47902099068750026	-0.267497216166388
-0.47895995553125026	-0.2644442050478769
-0.47889892037500026	-0.2613862746192118
-0.47883788521875026	-0.25832356625860325
-0.47877685006250026	-0.25525622271893145
-0.47871581490625026	-0.2521843852288893
-0.47865477975000026	-0.24910819072522797
-0.47859374459375026	-0.24602776924871492
-0.47853270943750026	-0.24294324149377972
-0.47847167428125026	-0.23985471666999844
-0.47841063912500026	-0.23676229067686677
-0.47834960396875026	-0.2336660444874039
-0.47828856881250026	-0.23056604284219137
-0.47822753365625026	-0.22746233349539036
-0.47816649850000026	-0.22435494719617707
-0.47810546334375026	-0.22124389825942678
-0.47804442818750026	-0.2181291853090544
-0.47798339303125026	-0.21501079222971461
-0.47792235787500026	-0.21188868977503086
-0.47786132271875026	-0.20876283776874457
-0.47780028756250026	-0.20563318747133466
-0.47773925240625026	-0.20249968413939556
-0.47767821725000026	-0.19936226996565434
-0.47761718209375026	-0.19622088721045441
-0.47755614693750026	-0.193075481276623
-0.47749511178125026	-0.18992600365700898
-0.47743407662500026	-0.18677241470878375
-0.47737304146875026	-0.18361468615566087
-0.47731200631250026	-0.18045280331679422
-0.47725097115625026	-0.17728676715220326
-0.47718993600000026	-0.1741165959965231
-0.47712890084375026	-0.1709423266651104
-0.47706786568750026	-0.16776401487238599
-0.47700683053125026	-0.16458173522095568
-0.47694579537500026	-0.16139558077577998
-0.47688476021875026	-0.158205662044767
-0.47682372506250026	-0.15501210550020092
-0.47676268990625026	-0.15181505173029664
-0.47670165475000026	-0.1486146530674473
-0.47664061959375026	-0.14541107082345728
-0.47657958443750026	-0.14220447247821097
-0.47651854928125026	-0.13899502886281095
-0.47645751412500026	-0.135782911163164
-0.47639647896875026	-0.1325682876938927
-0.47633544381250026	-0.12935132053413093
-0.47627440865625026	-0.12613216238889596
-0.47621337350000026	-0.12291095397778495
-0.47615233834375026	-0.1196878216381113
-0.47609130318750026	-0.11646287497804284
-0.47603026803125026	-0.11323620494435244
-0.47596923287500026	-0.11000788248502197
-0.47590819771875026	-0.10677795777178323
-0.47584716256250026	-0.1035464599607364
-0.47578612740625026	-0.10031339748354426
-0.47572509225000026	-0.09707875888809746
-0.47566405709375026	-0.09384251420974217
-0.47560302193750026	-0.09060461681851589
-0.47554198678125026	-0.08736500568459998
-0.47548095162500026	-0.08412360800989101
-0.47541991646875026	-0.08088034225035179
-0.47535888131250026	-0.07763512144751125
-0.47529784615625026	-0.07438785654610172
-0.47523681100000026	-0.07113845964575008
-0.47517577584375026	-0.06788684737187213
-0.47511474068750026	-0.06463294426496502
-0.47505370553125026	-0.06137668596749952
-0.47499267037500026	-0.0581180219652091
-0.47493163521875026	-0.05485691776741951
-0.47487060006250026	-0.051593356660118564
-0.47480956490625026	-0.04832734109690638
-0.47474852975000026	-0.04505889373162764
-0.47468749459375026	-0.04178805788156956
-0.47462645943750026	-0.03851489713133376
-0.47456542428125026	-0.03523949432870225
-0.47450438912500026	-0.031961950265658956
-0.47444335396875026	-0.028682381931045792
-0.47438231881250026	-0.025400920304856318
-0.47432128365625026	-0.0221177076634063
-0.47426024850000026	-0.018832894435756885
-0.47419921334375026	-0.015546636048238329
-0.47413817818750026	-0.012259089886199667
-0.47407714303125026	-0.00897041211955587
-0.47401610787500026	-0.005680754605099275
-0.47395507271875026	-0.0023902622898486652
-0.47389403756250026	0.0009009288141628217
-0.47383300240625026	0.004192693036534088
-0.47377196725000026	0.007484915436498028
-0.47371093209375026	0.010777490519549269
-0.47364989693750026	0.014070318349982621
-0.47358886178125026	0.017363297252756
-0.47352782662500026	0.0206563147702708
-0.47346679146875026	0.023949241273617007
-0.47340575631250026	0.027241928708225782
-0.47334472115625026	0.03053421316085885
-0.47328368600000026	0.0338259194762006
-0.47322265084375026	0.03711686715240208
-0.47316161568750026	0.04040687682457605
-0.47310058053125026	0.04369577678749286
-0.47303954537500026	0.046983409380187253
-0.47297851021875026	0.05026963706715337
-0.47291747506250026	0.05355434792610512
-0.47285643990625026	0.05683746029375364
-0.47279540475000026	0.0601189264200775
-0.47273436959375026	0.06339873500656483
-0.47267333443750026	0.06667691253411606
-0.47261229928125026	0.06995352335845277
-0.47255126412500026	0.073228668556011
-0.47249022896875026	0.07650248351974215
-0.47242919381250026	0.07977513450806768
-0.47236815865625026	0.08304681435709109
-0.47230712350000026	0.08631773720651846
-0.47224608834375026	0.08958813222381642
-0.47218505318750026	0.09285823685684622
-0.47212401803125026	0.09612828993279685
-0.47206298287500026	0.09939852446004788
-0.47200194771875026	0.10266916022356193
-0.47194091256250026	0.10594039649663183
-0.47187987740625026	0.10921240523286191
-0.47181884225000026	0.1124853250913748
-0.47175780709375026	0.11575925621727767
-0.47169677193750026	0.11903425563688519
-0.47163573678125026	0.12231033361949259
-0.47157470162500026	0.12558745135009627
-0.47151366646875026	0.12886551983636357
-0.47145263131250026	0.1321443999625634
-0.47139159615625026	0.13542390387759407
-0.47133056100000026	0.13870379770441507
-0.47126952584375026	0.14198380537609392
-0.47120849068750026	0.14526361365137566
-0.47114745553125026	0.14854287815014117
-0.47108642037500026	0.15182123004265552
-0.47102538521875026	0.15509828341828455
-0.47096435006250026	0.15837364330421547
-0.47090331490625026	0.16164691391355404
-0.47084227975000026	0.1649177068639911
-0.47078124459375026	0.16818564942890615
-0.47072020943750026	0.17145039267943843
-0.47065917428125026	0.17471161897224527
-0.47059813912500026	0.17796904845730935
-0.47053710396875026	0.18122244464687653
-0.47047606881250026	0.1844716189875371
