Time	Frequency
-0.500051059	0.746330054010051
-0.49999002384375	0.7460608317090728
-0.4999289886875	0.745781068424547
-0.49986795353125	0.7454907208484398
-0.499806918375	0.7451897741859026
-0.49974588321875	0.7448782427920834
-0.4996848480625	0.7445561699311749
-0.49962381290625	0.7442236267232455
-0.49956277775	0.7438807104431377
-0.49950174259375	0.7435275421525853
-0.4994407074375	0.7431642636224334
-0.49937967228125	0.7427910337278796
-0.499318637125	0.742408024502565
-0.49925760196875	0.74201541676549
-0.4991965668125	0.7416133953263748
-0.49913553165625	0.7412021441395498
-0.4990744965	0.7407818416357742
-0.49901346134375	0.7403526561503568
-0.4989524261875	0.7399147415447845
-0.49889139103125	0.7394682333206916
-0.498830355875	0.7390132453054558
-0.49876932071875	0.7385498667783753
-0.4987082855625	0.7380781600766264
-0.49864725040625	0.7375981589546816
-0.49858621525	0.7371098679688578
-0.49852518009375	0.7366132628095247
-0.4984641449375	0.736108291238936
-0.49840310978125	0.7355948746530887
-0.498342074625	0.7350729104760447
-0.49828103946875	0.734542275211361
-0.4982200043125	0.7340028279097212
-0.49815896915625	0.7334544140657517
-0.498097934	0.7328968699534049
-0.49803689884375	0.73233002728845
-0.4979758636875	0.7317537180029665
-0.49791482853125	0.731167778965405
-0.497853793375	0.7305720565391504
-0.49779275821875	0.7299664107480676
-0.4977317230625	0.729350719053285
-0.49767068790625	0.7287248798393599
-0.49760965275	0.7280888153133916
-0.49754861759375	0.7274424736974745
-0.4974875824375	0.7267858308219767
-0.49742654728125	0.7261188909043713
-0.497365512125	0.7254416864230276
-0.49730447696875	0.7247542772797622
-0.4972434418125	0.7240567493086658
-0.49718240665625	0.7233492120361598
-0.4971213715	0.722631795696698
-0.49706033634375	0.7219046478803987
-0.4969993011875	0.721167929984911
-0.49693826603125	0.720421813096683
-0.496877230875	0.7196664733484924
-0.49681619571875	0.7189020872897202
-0.4967551605625	0.7181288272978661
-0.49669412540625	0.7173468568425945
-0.49663309025	0.7165563261075716
-0.49657205509375	0.7157573683648992
-0.4965110199375	0.7149500966616393
-0.49644998478125	0.7141346006780673
-0.496388949625	0.7133109442176784
-0.49632791446875	0.7124791636453396
-0.4962668793125	0.7116392672659407
-0.49620584415625	0.710791235260754
-0.496144809	0.7099350200705588
-0.49608377384375	0.7090705477145508
-0.4960227386875	0.7081977200866144
-0.49596170353125	0.7073164177978323
-0.495900668375	0.7064265034281758
-0.49583963321875	0.7055278252941758
-0.4957785980625	0.7046202217472378
-0.49571756290625	0.7037035257192127
-0.49565652775	0.7027775693313674
-0.49559549259375	0.7018421885962834
-0.4955344574375	0.7008972280852579
-0.49547342228125	0.6999425453947917
-0.495412387125	0.6989780151479643
-0.49535135196875	0.6980035324235425
-0.4952903168125	0.697019015885353
-0.49522928165625	0.6960244105766107
-0.4951682465	0.6950196900318909
-0.49510721134375	0.6940048574819554
-0.4950461761875	0.6929799461206062
-0.49498514103125	0.691945018627545
-0.494924105875	0.6909001659887547
-0.49486307071875	0.6898455054334163
-0.4948020355625	0.6887811775542033
-0.49474100040625	0.6877073428780223
-0.49467996525	0.6866241780587549
-0.49461893009375	0.6855318718201945
-0.4945578949375	0.6844306206816533
-0.49449685978125	0.6833206241778338
-0.494435824625	0.6822020795158149
-0.49437478946875	0.6810751765509273
-0.4943137543125	0.6799400935845092
-0.49425271915625	0.6787969931686677
-0.494191684	0.6776460178132232
-0.49413064884375	0.6764872865296779
-0.4940696136875	0.6753208922366613
-0.49400857853125	0.6741468996605694
-0.493947543375	0.6729653439183889
-0.49388650821875	0.6717762297102418
-0.4938254730625	0.6705795310525396
-0.49376443790625	0.6693751921145417
-0.49370340275	0.6681631292562508
-0.49364236759375	0.6669432336523863
-0.4935813324375	0.6657153744250814
-0.49352029728125	0.6644794024047354
-0.493459262125	0.6632351541895091
-0.49339822696875	0.6619824564997995
-0.4933371918125	0.6607211310073954
-0.49327615665625	0.6594509993401584
-0.4932151215	0.6581718879598445
-0.49315408634375	0.65688363283162
-0.4930930511875	0.6555860838069857
-0.49303201603125	0.6542791088674917
-0.492970980875	0.6529625981405259
-0.49290994571875	0.6516364671337449
-0.4928489105625	0.6503006590903677
-0.49278787540625	0.6489551467192514
-0.49272684025	0.6475999333434008
-0.49266580509375	0.6462350532684649
-0.4926047699375	0.6448605711522857
-0.49254373478125	0.6434765806257494
-0.492482699625	0.6420832023167625
-0.49242166446875	0.6406805808978179
-0.4923606293125	0.6392688812563362
-0.49229959415625	0.637848284371692
-0.492238559	0.6364189829925205
-0.49217752384375	0.6349811770160816
-0.4921164886875	0.6335350685806453
-0.49205545353125	0.6320808569436209
-0.491994418375	0.6306187336082675
-0.49193338321875	0.6291488778066756
-0.4918723480625	0.6276714519571873
-0.49181131290625	0.6261865973113205
-0.49175027775	0.6246944302872538
-0.49168924259375	0.6231950396758597
-0.4916282074375	0.6216884849477982
-0.49156717228125	0.6201747955829736
-0.491506137125	0.6186539706357651
-0.49144510196875	0.6171259783549535
-0.4913840668125	0.6155907569254033
-0.49132303165625	0.6140482168592238
-0.4912619965	0.6124982442567353
-0.49120096134375	0.6109407045062054
-0.4911399261875	0.6093754467274309
-0.49107889103125	0.6078023086480773
-0.491017855875	0.6062211213424263
-0.49095682071875	0.6046317141161179
-0.4908957855625	0.6030339200065088
-0.49083475040625	0.6014275815028787
-0.49077371525	0.5998125556467083
-0.49071268009375	0.5981887183469924
-0.4906516449375	0.5965559683197464
-0.49059060978125	0.5949142307224179
-0.490529574625	0.5932634602009234
-0.49046853946875	0.5916036430506979
-0.4904075043125	0.5899347982754979
-0.49034646915625	0.5882569775748888
-0.490285434	0.586570264366313
-0.49022439884375	0.5848747720129337
-0.4901633636875	0.583170641330156
-0.49010232853125	0.5814580372480151
-0.490041293375	0.5797371447495726
-0.48998025821875	0.5780081641407424
-0.4899192230625	0.5762713057785431
-0.48985818790625	0.5745267846547142
-0.48979715275	0.5727748148023099
-0.48973611759375	0.5710156034444369
-0.4896750824375	0.569249345254424
-0.48961404728125	0.5674762171862454
-0.489553012125	0.5656963741642091
-0.48949197696875	0.5639099454683965
-0.4894309418125	0.5621170315041276
-0.48936990665625	0.5603177011507084
-0.4893088715	0.558511990167149
-0.48924783634375	0.5566999008233896
-0.4891868011875	0.5548814026080491
-0.48912576603125	0.5530564338654371
-0.489064730875	0.551224904087546
-0.48900369571875	0.5493866968468966
-0.4889426605625	0.5475416738242347
-0.48888162540625	0.5456896796045335
-0.48882059025	0.5438305465726094
-0.48875955509375	0.5419641001806113
-0.4886985199375	0.5400901646987076
-0.48863748478125	0.5382085689179715
-0.488576449625	0.5363191517180005
-0.48851541446875	0.5344217675365983
-0.4884543793125	0.5325162912220452
-0.48839334415625	0.5306026220643644
-0.488332309	0.52868068731764
-0.48827127384375	0.5267504449165344
-0.4882102386875	0.5248118849793966
-0.48814920353125	0.5228650305851011
-0.488088168375	0.5209099380337053
-0.48802713321875	0.5189466960017154
-0.4879660980625	0.5169754235367595
-0.48790506290625	0.5149962673571455
-0.48784402775	0.5130093984624853
-0.48778299259375	0.5110150079995104
-0.4877219574375	0.5090133027547151
-0.48766092228125	0.5070045002671777
-0.487599887125	0.5049888232157616
-0.48753885196875	0.5029664935162045
-0.4874778168125	0.500937726837037
-0.48741678165625	0.4989027274432607
-0.4873557465	0.49686168307164263
-0.48729471134375	0.49481476007450315
-0.4872336761875	0.4927620993456607
-0.48717264103125	0.49070381318165784
-0.487111605875	0.48863998288122334
-0.48705057071875	0.4865706571195785
-0.4869895355625	0.48449585105421733
-0.48692850040625	0.48241554622450683
-0.48686746525	0.480329691653701
-0.48680643009375	0.47823820593068084
-0.4867453949375	0.4761409800676044
-0.48668435978125	0.47403788135219777
-0.486623324625	0.47192875775232634
-0.48656228946875	0.4698134426160306
-0.4865012543125	0.4676917600443088
-0.48644021915625	0.4655635308696867
-0.486379184	0.4634285787154798
-0.48631814884375	0.46128673559762867
-0.4862571136875	0.4591378470151414
-0.48619607853125	0.45698177681387425
-0.486135043375	0.4548184118532436
-0.48607400821875	0.4526476663095083
-0.4860129730625	0.45046948508435974
-0.48595193790625	0.44828384588726133
-0.48589090275	0.4460907604243495
-0.48582986759375	0.44389027512147183
-0.4857688324375	0.44168247113198916
-0.48570779728125	0.4394674633002137
-0.485646762125	0.437245398009806
-0.48558572696875	0.43501645005818124
-0.4855246918125	0.4327808187763266
-0.48546365665625	0.430538723643226
-0.4854026215	0.4282903994964944
-0.48534158634375	0.4260360912083052
-0.4852805511875	0.42377604801477753
-0.48521951603125	0.42151051785880156
-0.485158480875	0.41923974178835755
-0.48509744571875	0.41696394834793854
-0.4850364105625	0.41468334807016954
-0.48497537540625	0.4123981285258134
-0.48491434025	0.41010845030261994
-0.48485330509375	0.40781444364495256
-0.4847922699375	0.4055162054602478
-0.48473123478125	0.40321379708145694
-0.484670199625	0.40090724322146615
-0.48460916446875	0.39859653195406725
-0.4845481293125	0.3962816155053668
-0.48448709415625	0.39396241204778976
-0.484426059	0.3916388085221881
-0.48436502384375	0.3893106641324884
-0.4843039886875	0.38697781455875296
-0.48424295353125	0.384640076856868
-0.484181918375	0.3822972546159247
-0.48412088321875	0.379949143476155
-0.4840598480625	0.37759553684423225
-0.48399881290625	0.37523623129464917
-0.48393777775	0.3728710320229393
-0.48387674259375	0.3704997584790323
-0.4838157074375	0.36812224948598204
-0.48375467228125	0.36573836754477984
-0.483693637125	0.363348002620202
-0.48363260196875	0.3609510756355758
-0.4835715668125	0.35854754118279963
-0.48351053165625	0.35613738922708055
-0.4834494965	0.3537206465230899
-0.48338846134375	0.35129737732488825
-0.4833274261875	0.34886768234763615
-0.48326639103125	0.3464316968313864
-0.483205355875	0.34398958862993984
-0.48314432071875	0.34154155558627475
-0.4830832855625	0.3390878217244425
-0.48302225040625	0.33662863253954195
-0.48296121525	0.3341642497562806
-0.48290018009375	0.3316949458313695
-0.4828391449375	0.3292209980466189
-0.48277810978125	0.32674268235985066
-0.482717074625	0.3242602674319504
-0.48265603946875	0.3217740086665458
-0.4825950043125	0.3192841423538265
-0.48253396915625	0.3167908806159329
-0.482472934	0.3142944074639771
-0.48241189884375	0.3117948755062776
-0.4823508636875	0.3092924028852985
-0.48228982853125	0.30678707103970104
-0.482228793375	0.3042789237711304
-0.48216775821875	0.3017679668927385
-0.4821067230625	0.29925416826283363
-0.48204568790625	0.2967374590589694
-0.48198465275	0.29421773630614795
-0.48192361759375	0.29169486576315107
-0.4818625824375	0.2891686853011817
-0.48180154728125	0.2866390092922546
-0.481740512125	0.284105633369226
-0.48167947696875	0.28156833939978515
-0.4816184418125	0.27902690128353425
-0.48155740665625	0.27648109145374905
-0.4814963715	0.2739306876688601
-0.48143533634375	0.27137547965589437
-0.4813743011875	0.26881527527509547
-0.48131326603125	0.2662499063356318
-0.481252230875	0.2636792337335063
-0.48119119571875	0.26110315129485817
-0.4811301605625	0.2585215886095755
-0.48106912540625	0.25593451346028767
-0.48100809025	0.25334193364826113
-0.48094705509375	0.25074389757901955
-0.4808860199375	0.248140493660063
-0.48082498478125	0.2455318489066185
-0.480763949625	0.24291812664392512
-0.48070291446875	0.2402995233655086
-0.4806418793125	0.23767626512012038
-0.48058084415625	0.2350486031794309
-0.480519809	0.23241680869866094
-0.48045877384375	0.2297811669487617
-0.4803977386875	0.22714197145316786
-0.48033670353125	0.2244995175498044
-0.480275668375	0.22185409531144237
-0.48021463321875	0.2192059826944868
-0.4801535980625	0.21655543942708735
-0.48009256290625	0.2139027010929135
-0.48003152775	0.21124797357867361
-0.47997049259375	0.2085914288608648
-0.4799094574375	0.2059332021194232
-0.47984842228125	0.20327338974556186
-0.479787387125	0.20061204832358334
-0.47972635196875	0.19794919460987037
-0.4796653168125	0.19528480632010542
-0.47960428165625	0.19261882380061388
-0.4795432465	0.18995115257635078
-0.47948221134375	0.18728166657136666
-0.4794211761875	0.18461021215214315
-0.47936014103125	0.18193661282001308
-0.479299105875	0.17926067437029175
-0.47923807071875	0.17658219108082573
-0.4791770355625	0.1739009526735284
-0.47911600040625	0.1712167508936263
-0.47905496525	0.16852938555538788
-0.47899393009375	0.16583867060651764
-0.4789328949375	0.16314443990087796
-0.47887185978125	0.1604465521257038
-0.478810824625	0.15774489477244263
-0.47874978946875	0.15503938705897594
-0.4786887543125	0.1523299821794885
-0.47862771915625	0.1496166689537388
-0.478566684	0.14689947239533876
-0.47850564884375	0.14417845334245968
-0.4784446136875	0.1414537070574766
-0.47838357853125	0.13872536047240033
-0.478322543375	0.13599356854873773
-0.47826150821875	0.1332585100678801
-0.4782004730625	0.13052038264805574
-0.47813943790625	0.12777939704853775
-0.47807840275	0.12503577098655044
-0.47801736759375	0.12228972262847558
-0.4779563324375	0.11954146413577292
-0.47789529728125	0.11679119557531034
-0.477834262125	0.11403909906477289
-0.47777322696875	0.11128533312538795
-0.4777121918125	0.10853002759410657
-0.47765115665625	0.10577327941292586
-0.4775901215	0.10301514963297935
-0.47752908634375	0.1002556618707533
-0.4774680511875	0.09749480196514765
-0.47740701603125	0.09473251891263171
-0.477345980875	0.09196872724973108
-0.47728494571875	0.08920331167673676
-0.4772239105625	0.08643613860886516
-0.47716287540625	0.08366707787966497
-0.47710184025	0.08089602742101033
-0.47704080509375	0.07812293057122964
-0.4769797699375	0.07534778414605596
-0.47691873478125	0.07257064092878586
-0.476857699625	0.06979160851586236
-0.47679666446875	0.0670108451370502
-0.4767356293125	0.06422855358106543
-0.47667459415625	0.06144497354529831
-0.476613559	0.058660372388998676
-0.47655252384375	0.05587503515443536
-0.4764914886875	0.05308925445159128
-0.47643045353125	0.05030332028143642
-0.476369418375	0.04751750994926078
-0.47630838321875	0.04473207844594364
-0.4762473480625	0.041947249885102435
-0.47618631290625	0.039163210169059756
-0.47612527775	0.036380100719173185
-0.47606424259375	0.03359801346612333
-0.4760032074375	0.030816987479349158
-0.47594217228125	0.02803700708165979
-0.475881137125	0.025258001309435937
-0.47582010196875	0.02247984514499522
-0.4757590668125	0.019702362450360018
-0.47569803165625	0.016925330326895034
-0.4756369965	0.014148485014292129
-0.47557596134375	0.011371528799413945
-0.4755149261875	0.00859413748270769
-0.47545389103125	0.005815968778637185
-0.475392855875	0.0030366715354553106
-0.47533182071875	0.0002558952370799599
-0.4752707855625	-0.0025267005022717817
-0.47520975040625	-0.00531143681982249
-0.47514871525	-0.008098607117501927
-0.47508768009375	-0.01088846902473215
-0.4750266449375	-0.01368123692815828
-0.47496560978125	-0.016477075869355585
-0.474904574625	-0.019276096986966973
-0.47484353946875	-0.02207835410218564
-0.4747825043125	-0.024883841508659944
-0.47472146915625	-0.027692493092473167
-0.474660434	-0.03050418312941551
-0.47459939884375	-0.033318728833308366
-0.4745383636875	-0.036135893926430025
-0.47447732853125	-0.038955393177020306
-0.474416293375	-0.04177689831430811
-0.47435525821875	-0.04460004497451735
-0.4742942230625	-0.04742444022490129
-0.47423318790625	-0.05024967062131836
-0.47417215275	-0.05307531082508624
-0.47411111759375	-0.055900932644281594
-0.4740500824375	-0.05872611391894449
-0.47398904728125	-0.06155044691707228
-0.473928012125	-0.0643735466901305
-0.47386697696875	-0.06719505899972313
-0.4738059418125	-0.0700146669398588
-0.47374490665625	-0.07283209660502311
-0.4736838715	-0.07564712200030697
-0.47362283634375	-0.07845956884798047
-0.4735618011875	-0.08126931738790935
-0.47350076603125	-0.08407630384762926
-0.473439730875	-0.0868805201313745
-0.47337869571875	-0.08968201224238377
-0.4733176605625	-0.09248087797780322
-0.47325662540625	-0.09527726363226612
-0.47319559025	-0.09807135943311449
-0.47313455509375	-0.10086339401000739
-0.4730735199375	-0.1036536282622792
-0.47301248478125	-0.10644234855756583
-0.472951449625	-0.10922985921661423
-0.47289041446875	-0.11201647465984976
-0.4728293793125	-0.1148025115466553
-0.47276834415625	-0.11758828081820338
-0.472707309	-0.12037407972852426
-0.47264627384375	-0.12316018438255287
-0.4725852386875	-0.1259468430784744
-0.47252420353125	-0.12873427054102607
-0.472463168375	-0.13152264277952128
-0.47240213321875	-0.13431209218925602
-0.4723410980625	-0.13710270354620735
-0.47228006290625	-0.13989451150704507
-0.47221902775	-0.142687499223242
-0.47215799259375	-0.14548159802208024
-0.4720969574375	-0.14827668832952012
-0.47203592228125	-0.151072601595861
-0.471974887125	-0.15386912322632132
-0.47191385196875	-0.15666599648407348
-0.4718528168125	-0.15946292708731555
-0.47179178165625	-0.1622595885789413
-0.4717307465	-0.16505562855964723
-0.47166971134375	-0.16785067538229517
-0.4716086761875	-0.17064434496431416
-0.47154764103125	-0.17343624776551153
-0.471486605875	-0.17622599587257728
-0.47142557071875	-0.17901321015082325
-0.4713645355625	-0.18179752744883576
-0.47130350040625	-0.1845786072313302
-0.47124246525	-0.1873561373696609
-0.47118143009375	-0.19012983959797475
-0.4711203949375	-0.1928994744884696
-0.47105935978125	-0.19566484533176826
-0.470998324625	-0.19842580079112282
-0.47093728946875	-0.20118223663811552
-0.4708762543125	-0.20393409681099903
-0.47081521915625	-0.20668137352043184
-0.470754184	-0.20942410616294765
-0.47069314884375	-0.2121623794111894
-0.4706321136875	-0.21489632074379916
-0.47057107853125	-0.2176260969651522
-0.470510043375	-0.22035190956343922
-0.47044900821875	-0.22307398940815165
-0.4703879730625	-0.22579259095953422
-0.47032693790625	-0.22850798610497483
-0.47026590275	-0.23122045778832678
-0.47020486759375	-0.23393029319558603
-0.4701438324375	-0.23663777651356088
-0.47008279728125	-0.23934318186917722
-0.470021762125	-0.24204676682478168
-0.46996072696875	-0.24474876611926322
-0.4698996918125	-0.2474493856090877
-0.46983865665625	-0.2501487967612339
-0.4697776215	-0.25284713188659785
-0.46971658634375	-0.25554448045996087
-0.4696555511875	-0.2582408866362302
-0.46959451603125	-0.26093634774218466
-0.469533480875	-0.26363081365490204
-0.46947244571875	-0.26632418700607924
-0.4694114105625	-0.26901632420890814
-0.46935037540625	-0.2717070372779263
-0.46928934025	-0.27439609669667175
-0.46922830509375	-0.2770832357160088
-0.4691672699375	-0.2797681556396377
-0.46910623478125	-0.2824505313790376
-0.469045199625	-0.28513001733550286
-0.46898416446875	-0.28780625398392007
-0.4689231293125	-0.29047887494313124
-0.46886209415625	-0.29314751399292277
-0.468801059	-0.295811811941409
-0.46874002384375	-0.298471423554699
-0.4686789886875	-0.30112602436719765
-0.46861795353125	-0.3037753168703924
-0.468556918375	-0.30641903613026034
-0.46849588321875	-0.3090569551324301
-0.4684348480625	-0.31168888947386675
-0.46837381290625	-0.31431470076669504
-0.46831277775	-0.31693429863666056
-0.46825174259375	-0.3195476417618996
-0.4681907074375	-0.3221547382971891
-0.46812967228125	-0.3247556454290005
-0.468068637125	-0.32735046774050514
-0.46800760196875	-0.3299393544632597
-0.4679465668125	-0.33252249576801635
-0.46788553165625	-0.335100118106622
-0.4678244965	-0.3376724788299569
-0.46776346134375	-0.34023986039395593
-0.4677024261875	-0.34280256407797255
-0.46764139103125	-0.3453609031210054
-0.467580355875	-0.3479151954567304
-0.46751932071875	-0.35046575633236327
-0.4674582855625	-0.35301289103841565
-0.46739725040625	-0.35555688777391437
-0.46733621525	-0.35809801078614195
-0.46727518009375	-0.3606364941823067
-0.4672141449375	-0.36317253661324805
-0.46715310978125	-0.3657062966324515
-0.467092074625	-0.3682378886022571
-0.46703103946875	-0.3707673794220319
-0.4669700043125	-0.37329478639174324
-0.46690896915625	-0.37582007635864284
-0.466847934	-0.378343166045678
