Time	Frequency
-0.50003626234375	0.7894877602364394
-0.4999752271875	0.7901465541831277
-0.49991419203125	0.7907933882112087
-0.499853156875	0.791428209469969
-0.49979212171875	0.7920509665412432
-0.4997310865625	0.7926616105701508
-0.49967005140625	0.7932600963537163
-0.49960901625	0.7938463833619813
-0.49954798109375	0.7944204366253661
-0.4994869459375	0.7949822274633159
-0.49942591078125	0.7955317340624921
-0.499364875625	0.7960689418913944
-0.49930384046875	0.7965938439109994
-0.4992428053125	0.7971064405347689
-0.49918177015625	0.7976067393554382
-0.499120735	0.798094754685132
-0.49905969984375	0.7985705069012157
-0.4989986646875	0.7990340215965218
-0.49893762953125	0.7994853285688264
-0.498876594375	0.7999244606588654
-0.49881555921875	0.8003514524520345
-0.4987545240625	0.8007663389299152
-0.49869348890625	0.8011691541591255
-0.49863245375	0.8015599300301229
-0.49857141859375	0.8019386950334981
-0.4985103834375	0.8023054731079978
-0.49844934828125	0.8026602826324155
-0.498388313125	0.8030031355950932
-0.49832727796875	0.8033340369472451
-0.4982662428125	0.8036529841764215
-0.49820520765625	0.8039599671122324
-0.4981441725	0.8042549679540063
-0.49808313734375	0.8045379615571199
-0.4980221021875	0.8048089159790228
-0.49796106703125	0.8050677932024596
-0.497900031875	0.8053145500315588
-0.49783899671875	0.8055491392175776
-0.4977779615625	0.8057715107325145
-0.49771692640625	0.8059816130689721
-0.49765589125	0.806179394570003
-0.49759485609375	0.8063648048178884
-0.4975338209375	0.8065377960315683
-0.49747278578125	0.806698324375058
-0.497411750625	0.8068463511431324
-0.49735071546875	0.8069818438446864
-0.4972896803125	0.8071047771006715
-0.49722864515625	0.8072151332824645
-0.49716761	0.8073129029521843
-0.49710657484375	0.8073980850877392
-0.4970455396875	0.807470687009822
-0.49698450453125	0.8075307240347837
-0.496923469375	0.8075782189039548
-0.49686243421875	0.807613201018596
-0.4968013990625	0.8076357054852688
-0.49674036390625	0.8076457719518729
-0.49667932875	0.8076434432819076
-0.49661829359375	0.8076287641364712
-0.4965572584375	0.8076017795062433
-0.49649622328125	0.8075625332647214
-0.496435188125	0.8075110667282115
-0.49637415296875	0.8074474172080731
-0.4963131178125	0.8073716167217835
-0.49625208265625	0.8072836909377086
-0.4961910475	0.8071836582839977
-0.49613001234375	0.8070715292289806
-0.4960689771875	0.8069473057746912
-0.49600794203125	0.806810981215165
-0.495946906875	0.8066625401765979
-0.49588587171875	0.8065019589108876
-0.4958248365625	0.8063292058663352
-0.49576380140625	0.8061442425188818
-0.49570276625	0.8059470243892991
-0.49564173109375	0.8057375022445551
-0.4955806959375	0.8055156235114725
-0.49551966078125	0.8052813338071895
-0.495458625625	0.805034578466214
-0.49539759046875	0.8047753041396787
-0.4953365553125	0.8045034604621923
-0.49527552015625	0.8042190015521272
-0.495214485	0.8039218873199558
-0.49515344984375	0.8036120847181399
-0.4950924146875	0.8032895688300058
-0.49503137953125	0.802954323649172
-0.494970344375	0.8026063425901943
-0.49490930921875	0.8022456287473476
-0.4948482740625	0.8018721948570338
-0.49478723890625	0.8014860630216506
-0.49472620375	0.8010872642587519
-0.49466516859375	0.8006758377994276
-0.4946041334375	0.8002518300154915
-0.49454309828125	0.7998152930893074
-0.494482063125	0.7993662836536571
-0.49442102796875	0.7989048613576438
-0.4943599928125	0.7984310872365761
-0.49429895765625	0.7979450219423294
-0.4942379225	0.7974467239823191
-0.49417688734375	0.7969362481038407
-0.4941158521875	0.7964136438363123
-0.49405481703125	0.7958789541655873
-0.493993781875	0.7953322143909594
-0.49393274671875	0.7947734512378191
-0.4938717115625	0.7942026822389076
-0.49381067640625	0.793619915330557
-0.49374964125	0.7930251487435339
-0.49368860609375	0.7924183712974373
-0.4936275709375	0.7917995629401365
-0.49356653578125	0.7911686953995433
-0.493505500625	0.7905257331084998
-0.49344446546875	0.7898706345064397
-0.4933834303125	0.789203353583588
-0.49332239515625	0.788523841530378
-0.49326136	0.7878320484266582
-0.49320032484375	0.7871279249255395
-0.4931392896875	0.7864114238889197
-0.49307825453125	0.7856825019578105
-0.493017219375	0.784941121127157
-0.49295618421875	0.7841872502941372
-0.4928951490625	0.7834208665738113
-0.49283411390625	0.7826419563182846
-0.49277307875	0.7818505158393285
-0.49271204359375	0.7810465517828706
-0.4926510084375	0.7802300812707895
-0.49258997328125	0.7794011318167323
-0.492528938125	0.7785597408622853
-0.49246790296875	0.7777059549683061
-0.4924068678125	0.7768398287690738
-0.49234583265625	0.7759614237552158
-0.4922847975	0.7750708068649714
-0.49222376234375	0.774168048802778
-0.4921627271875	0.7732532221867756
-0.49210169203125	0.7723263996938716
-0.492040656875	0.7713876522300038
-0.49197962171875	0.7704370471439822
-0.4919185865625	0.7694746465709436
-0.49185755140625	0.7685005059280046
-0.49179651625	0.7675146724876475
-0.49173548109375	0.7665171840676555
-0.4916744459375	0.765508068016065
-0.49161341078125	0.7644873406379927
-0.491552375625	0.7634550070936631
-0.49149134046875	0.7624110616081579
-0.4914303053125	0.7613554878222121
-0.49136927015625	0.760288259341523
-0.491308235	0.7592093406807232
-0.49124719984375	0.7581186886976714
-0.4911861646875	0.7570162543586058
-0.49112512953125	0.7559019845513442
-0.491064094375	0.754775823831645
-0.49100305921875	0.7536377162416781
-0.4909420240625	0.7524876073129377
-0.49088098890625	0.7513254460987723
-0.49081995375	0.7501511871319626
-0.49075891859375	0.7489647923438832
-0.4906978834375	0.7477662327501381
-0.49063684828125	0.7465554897126043
-0.490575813125	0.7453325559046897
-0.49051477796875	0.7440974360732746
-0.4904537428125	0.742850147480277
-0.49039270765625	0.7415907199437353
-0.4903316725	0.7403191955162836
-0.49027063734375	0.7390356278388456
-0.4902096021875	0.7377400811462256
-0.49014856703125	0.73643262887945
-0.490087531875	0.7351133519577167
-0.49002649671875	0.7337823368465025
-0.4899654615625	0.7324396735187514
-0.48990442640625	0.7310854533604317
-0.48984339125	0.7297197670813702
-0.48978235609375	0.7283427026280216
-0.4897213209375	0.7269543430398339
-0.48966028578125	0.7255547644476937
-0.489599250625	0.7241440344792178
-0.48953821546875	0.7227222109508549
-0.4894771803125	0.7212893406501999
-0.48941614515625	0.7198454583209055
-0.48935511	0.718390586091667
-0.48929407484375	0.7169247334388472
-0.4892330396875	0.7154478975621831
-0.48917200453125	0.7139600639946555
-0.489110969375	0.7124612075383362
-0.48904993421875	0.7109512936870483
-0.4889888990625	0.709430280375654
-0.48892786390625	0.707898119919606
-0.48886682875	0.7063547611021441
-0.48880579359375	0.7048001513304258
-0.4887447584375	0.7032342389207951
-0.48868372328125	0.70165697548464
-0.488622688125	0.7000683181565286
-0.48856165296875	0.6984682315506017
-0.4885006178125	0.6968566895449259
-0.48843958265625	0.6952336768735341
-0.4883785475	0.6935991903910702
-0.48831751234375	0.6919532399070517
-0.4882564771875	0.6902958486823028
-0.48819544203125	0.68862705369296
-0.488134406875	0.6869469053324444
-0.48807337171875	0.6852554664593492
-0.4880123365625	0.6835528111989361
-0.48795130140625	0.681839023565336
-0.48789026625	0.6801141956870431
-0.48782923109375	0.6783784255885916
-0.4877681959375	0.6766318148011484
-0.48770716078125	0.6748744661164756
-0.487646125625	0.6731064813009645
-0.48758509046875	0.6713279585457991
-0.4875240553125	0.6695389899881856
-0.48746302015625	0.6677396595611611
-0.487401985	0.665930041003049
-0.48734094984375	0.6641101961139974
-0.4872799146875	0.6622801735588829
-0.48721887953125	0.6604400081325439
-0.487157844375	0.6585897203394622
-0.48709680921875	0.6567293164085423
-0.4870357740625	0.6548587888504207
-0.48697473890625	0.6529781175163315
-0.48691370375	0.651087270978194
-0.48685266859375	0.6491862081698925
-0.4867916334375	0.6472748804145068
-0.48673059828125	0.6453532337331646
-0.486669563125	0.6434212112987959
-0.48660852796875	0.6414787561184312
-0.4865474928125	0.6395258138433236
-0.48648645765625	0.6375623353904916
-0.4864254225	0.6355882792503182
-0.48636438734375	0.6336036136028932
-0.4863033521875	0.631608318301675
-0.48624231703125	0.6296023865643786
-0.486181281875	0.6275858261908311
-0.48612024671875	0.6255586602935929
-0.4860592115625	0.6235209275889149
-0.48599817640625	0.6214726822175096
-0.48593714125	0.6194139930370363
-0.48587610609375	0.617344942378821
-0.4858150709375	0.6152656243525811
-0.48575403578125	0.6131761428730941
-0.485693000625	0.6110766095562342
-0.48563196546875	0.6089671413738862
-0.4855709303125	0.6068478579483242
-0.48550989515625	0.6047188787408432
-0.48544886	0.6025803202995464
-0.48538782484375	0.6004322935422266
-0.4853267896875	0.5982749011843097
-0.48526575453125	0.5961082354297694
-0.485204719375	0.5939323761307763
-0.48514368421875	0.5917473895071681
-0.4850826490625	0.5895533271722473
-0.48502161390625	0.5873502253456718
-0.48496057875	0.5851381045639945
-0.48489954359375	0.5829169701909946
-0.4848385084375	0.5806868134352056
-0.48477747328125	0.5784476125318792
-0.484716438125	0.5761993343384627
-0.48465540296875	0.5739419363688387
-0.4845943678125	0.5716753689821975
-0.48453333265625	0.5693995779061906
-0.4844722975	0.5671145071534588
-0.48441126234375	0.5648201018758295
-0.4843502271875	0.5625163109671835
-0.48428919203125	0.5602030896213492
-0.484228156875	0.5578804018091715
-0.48416712171875	0.5555482224268626
-0.4841060865625	0.5532065390335645
-0.48404505140625	0.5508553531742496
-0.48398401625	0.548494681406366
-0.48392298109375	0.5461245560114428
-0.4838619459375	0.5437450250580018
-0.48380091078125	0.54135615186703
-0.483739875625	0.5389580141568796
-0.48367884046875	0.5365507028111393
-0.4836178053125	0.5341343202262491
-0.48355677015625	0.531708978301221
-0.483495735	0.5292747961399974
-0.48343469984375	0.5268318976191017
-0.4833736646875	0.5243804087741105
-0.48331262953125	0.5219204549038869
-0.483251594375	0.5194521577856733
-0.48319055921875	0.5169756333047382
-0.4831295240625	0.5144909891205133
-0.48306848890625	0.5119983222631201
-0.48300745375	0.5094977171830835
-0.48294641859375	0.5069892444364332
-0.4828853834375	0.5044729597838247
-0.48282434828125	0.5019489036540493
-0.482763313125	0.49941710096523734
-0.48270227796875	0.49687756128808597
-0.4826412428125	0.494330279596665
-0.48258020765625	0.4917752376045368
-0.4825191725	0.4892124052500885
-0.48245813734375	0.4866417424391165
-0.4823971021875	0.484063201333257
-0.48233606703125	0.481476728829813
-0.482275031875	0.4788822690767565
-0.48221399671875	0.47627976621940205
-0.4821529615625	0.4736691672033836
-0.48209192640625	0.4710504243913406
-0.48203089125	0.46842349799352184
-0.48196985609375	0.46578835822646053
-0.4819088209375	0.46314498715551616
-0.48184778578125	0.4604933803661439
-0.481786750625	0.45783354841737856
-0.48172571546875	0.45516551781983444
-0.4816646803125	0.45248933142995773
-0.48160364515625	0.4498050483416286
-0.48154261	0.44711274328132444
-0.48148157484375	0.4444125055234069
-0.4814205396875	0.4417044374900377
-0.48135950453125	0.438988653080721
-0.481298469375	0.43626527564287904
-0.48123743421875	0.4335344355475538
-0.4811763990625	0.43079626755267797
-0.48111536390625	0.4280509081982019
-0.48105432875	0.4252984931179055
-0.48099329359375	0.4225391541921934
-0.4809322584375	0.4197730168951139
-0.48087122328125	0.41700019809281214
-0.480810188125	0.41422080404968786
-0.48074915296875	0.4114349283761665
-0.4806881178125	0.4086426502938125
-0.48062708265625	0.4058440335892863
-0.4805660475	0.4030391259602683
-0.48050501234375	0.4002279586182282
-0.4804439771875	0.39741054642850404
-0.48038294203125	0.3945868886229835
-0.480321906875	0.39175696995507253
-0.48026087171875	0.38892076221189115
-0.4801998365625	0.38607822600370095
-0.48013880140625	0.3832293129226141
-0.48007776625	0.3803739680757001
-0.48001673109375	0.37751213276460055
-0.4799556959375	0.37464374726094296
-0.47989466078125	0.3717687537058686
-0.479833625625	0.36888709899096195
-0.47977259046875	0.36599873739775285
-0.4797115553125	0.3631036329630021
-0.47965052015625	0.36020176178543484
-0.479589485	0.35729311415516973
-0.47952844984375	0.35437769612777725
-0.4794674146875	0.3514555306213805
-0.47940637953125	0.3485266582545412
-0.479345344375	0.345591137699121
-0.47928430921875	0.3426490453501799
-0.4792232740625	0.33970047454549535
-0.47916223890625	0.33674553436131127
-0.47910120375	0.3337843478085519
-0.47904016859375	0.3308170498151884
-0.4789791334375	0.32784378512757534
-0.47891809828125	0.3248647056092349
-0.478857063125	0.32187996714904565
-0.47879602796875	0.3188897266660285
-0.4787349928125	0.31589413903282026
-0.47867395765625	0.3128933539524322
-0.4786129225	0.30988751306936974
-0.47855188734375	0.30687674724236114
-0.4784908521875	0.30386117397316564
-0.47842981703125	0.30084089525527924
-0.478368781875	0.2978159958683547
-0.47830774671875	0.2947865420800073
-0.4782467115625	0.2917525809544834
-0.47818567640625	0.2887141402344719
-0.47812464125	0.28567122865074224
-0.47806360609375	0.2826238367833955
-0.4780025709375	0.2795719384697638
-0.47794153578125	0.27651549258785973
-0.477880500625	0.273454445345511
-0.47781946546875	0.27038873318007856
-0.4777584303125	0.2673182858728313
-0.47769739515625	0.2642430295818049
-0.47763636	0.26116288998080184
-0.47757532484375	0.2580777956464521
-0.4775142896875	0.25498768148831596
-0.47745325453125	0.2518924919176262
-0.477392219375	0.24879218365077752
-0.47733118421875	0.24568672812232392
-0.4772701490625	0.2425761134305851
-0.47720911390625	0.23946034584200518
-0.47714807875	0.23633945102145792
-0.47708704359375	0.23321347496647885
-0.4770260084375	0.23008248425873817
-0.47696497328125	0.22694656548357064
-0.476903938125	0.22380582407672348
-0.47684290296875	0.22066038274675476
-0.4767818678125	0.21751037947023144
-0.47672083265625	0.21435596508863858
-0.4766597975	0.21119730060990904
-0.47659876234375	0.20803455433595153
-0.4765377271875	0.20486789882325915
-0.47647669203125	0.2016975076547538
-0.476415656875	0.1985235521044945
-0.47635462171875	0.19534619780501902
-0.4762935865625	0.19216560159864182
-0.47623255140625	0.18898190876051818
-0.47617151625	0.18579525050905052
-0.47611048109375	0.18260574167488686
-0.4760494459375	0.1794134787679017
-0.47598841078125	0.17621853881583827
-0.475927375625	0.1730209789095601
-0.47586634046875	0.16982083610116278
-0.4758053053125	0.16661812768405418
-0.47574427015625	0.1634128520760591
-0.475683235	0.16020499031946167
-0.47562219984375	0.1569945081304199
-0.4755611646875	0.15378135834714285
-0.47550012953125	0.15056548362419597
-0.475439094375	0.14734681928608903
-0.47537805921875	0.14412529629353815
-0.4753170240625	0.14090084433818756
-0.47525598890625	0.13767339506171658
-0.47519495375	0.13444288531654117
-0.47513391859375	0.13120926016882284
-0.4750728834375	0.1279724754052171
-0.47501184828125	0.12473249974981908
-0.474950813125	0.12148931693038924
-0.47488977796875	0.11824292726706266
-0.4748287428125	0.1149933484625742
-0.47476770765625	0.11174061577483561
-0.4747066725	0.10848478188071893
-0.47464563734375	0.10522591628027288
-0.4745846021875	0.10196410403435051
-0.47452356703125	0.09869944401660724
-0.474462531875	0.09543204691863375
-0.47440149671875	0.09216203289775897
-0.4743404615625	0.08888952864372374
-0.47427942640625	0.08561466412457053
-0.47421839125	0.08233756946934292
-0.47415735609375	0.07905837206669784
-0.4740963209375	0.07577719375870019
-0.47403528578125	0.0724941481126502
-0.473974250625	0.06920933802270252
-0.47391321546875	0.0659228539937134
-0.4738521803125	0.06263477323058714
-0.47379114515625	0.05934515970508156
-0.47373011	0.056054065604737656
-0.47366907484375	0.052761534621094286
-0.4736080396875	0.04946760816262516
-0.47354700453125	0.046172335179797755
-0.473485969375	0.04287578269066883
-0.47342493421875	0.03957804222635721
-0.4733638990625	0.0362792309200763
-0.47330286390625	0.0329794890670751
-0.47324182875	0.029678975635191604
-0.47318079359375	0.026377862484476565
-0.4731197584375	0.023076327865275772
-0.47305872328125	0.019774549634068394
-0.472997688125	0.01647269865637749
-0.47293665296875	0.013170932662472764
-0.4728756178125	0.009869390580798646
-0.47281458265625	0.0065681875251100445
-0.4727535475	0.003267410763890861
-0.47269251234375	-3.288318818584722e-05
-0.4726314771875	-0.0033326704958332298
-0.47257044203125	-0.006631961005899917
-0.472509406875	-0.009930797981808716
-0.47244837171875	-0.013229256250590675
-0.4723873365625	-0.016527439181834393
-0.47232630140625	-0.01982547514952923
-0.47226526625	-0.023123513378502974
-0.47220423109375	-0.026421718764674054
-0.4721431959375	-0.029720265877522436
-0.47208216078125	-0.033019332741452447
-0.472021125625	-0.03631909466968955
-0.47196009046875	-0.03961971809419628
-0.4718990553125	-0.04292135441278219
-0.47183802015625	-0.04622413417623211
-0.471776985	-0.049528161984388176
-0.47171594984375	-0.05283351214069121
-0.4716549146875	-0.05614022495953509
-0.47159387953125	-0.05944830387824964
-0.471532844375	-0.06275771374672706
-0.47147180921875	-0.06606838039118008
-0.4714107740625	-0.06938019118425352
-0.47134973890625	-0.07269299649182968
-0.47128870375	-0.07600661217111244
-0.47122766859375	-0.0793208230742991
-0.4711666334375	-0.0826353873105205
-0.47110559828125	-0.08595004130640505
-0.471044563125	-0.08926450554195106
-0.47098352796875	-0.09257849065495873
-0.4709224928125	-0.0958917039132934
-0.47086145765625	-0.0992038558467738
-0.4708004225	-0.10251466665678963
-0.47073938734375	-0.10582387225260491
-0.4706783521875	-0.1091312297051338
-0.47061731703125	-0.11243652208272127
-0.470556281875	-0.115739562769419
-0.47049524671875	-0.11904019889474814
-0.4704342115625	-0.12233831350443815
-0.47037317640625	-0.1256338266970748
-0.47031214125	-0.12892669597012488
-0.47025110609375	-0.13221691557365803
-0.4701900709375	-0.1355045147275072
-0.47012903578125	-0.13878955481221858
-0.470068000625	-0.14207212561654642
-0.47000696546875	-0.14535234080380824
-0.4699459303125	-0.14863033275932588
-0.46988489515625	-0.15190624692360147
-0.46982386	-0.1551802357346623
-0.46976282484375	-0.158452452214395
-0.4697017896875	-0.161723043527149
-0.46964075453125	-0.1649921451251856
-0.469579719375	-0.16825987547892376
-0.46951868421875	-0.17152633095000325
-0.4694576490625	-0.1747915811050598
-0.46939661390625	-0.17805566514788004
-0.46933557875	-0.18131858950528212
-0.46927454359375	-0.1845803262913409
-0.4692135084375	-0.18784081257575136
-0.46915247328125	-0.1910999505605795
-0.469091438125	-0.1943576088171604
-0.46903040296875	-0.19761362465605692
-0.4689693678125	-0.2008678074939775
-0.46890833265625	-0.20411994287876134
-0.4688472975	-0.20736979711455442
-0.46878626234375	-0.21061712265826504
-0.4687252271875	-0.21386166398135098
-0.46866419203125	-0.21710316340270344
-0.468603156875	-0.220341366809462
-0.46854212171875	-0.22357602933382256
-0.4684810865625	-0.22680692087544
-0.46842005140625	-0.23003383121364415
-0.46835901625	-0.23325657441705022
-0.46829798109375	-0.23647499242014788
-0.4682369459375	-0.239688957838188
-0.46817591078125	-0.24289837595474129
-0.468114875625	-0.24610318573702272
-0.46805384046875	-0.24930335989781627
-0.4679928053125	-0.2524989039688249
-0.46793177015625	-0.2556898542951339
-0.467870735	-0.2588762750598911
-0.46780969984375	-0.2620582545969894
-0.4677486646875	-0.2652359011196392
-0.46768762953125	-0.26840933786482163
-0.467626594375	-0.2715786977625671
-0.46756555921875	-0.27474411778124463
-0.4675045240625	-0.2779057331830563
-0.46744348890625	-0.2810636719857936
-0.46738245375	-0.2842180496820002
-0.46732141859375	-0.28736896428422637
-0.4672603834375	-0.2905164918947718
-0.46719934828125	-0.29366068293133407
-0.467138313125	-0.2968015592097891
-0.46707727796875	-0.29993911193204603
-0.4670162428125	-0.3030733004485067
-0.46695520765625	-0.30620405194708766
-0.4668941725	-0.3093312622947291
-0.46683313734375	-0.31245479793243386
-0.4667721021875	-0.31557449862061077
-0.46671106703125	-0.31869018089396034
-0.466650031875	-0.32180164215077317
