Time	Frequency
-0.50005144646875	-1.74573568436529e-21
-0.4999904113125	-1.7498957845186138e-21
-0.49992937615625	-1.7540363640869334e-21
-0.499868341	-1.7581574405867786e-21
-0.49980730584375	-1.7622589654481912e-21
-0.4997462706875	-1.7663408217114495e-21
-0.49968523553125	-1.7704028241199947e-21
-0.499624200375	-1.774444722507469e-21
-0.49956316521875	-1.7784662075684794e-21
-0.4995021300625	-1.7824669183785758e-21
-0.49944109490625	-1.7864464525663912e-21
-0.49938005975	-1.790404379307213e-21
-0.49931902459375	-1.7943402531822085e-21
-0.4992579894375	-1.798253627646195e-21
-0.49919695428125	-1.8021440690093455e-21
-0.499135919125	-1.8060111708547537e-21
-0.49907488396875	-1.8098545675943505e-21
-0.4990138488125	-1.8136739468578086e-21
-0.49895281365625	-1.817469060233012e-21
-0.4988917785	-1.8212397315085355e-21
-0.49883074334375	-1.8249858627107027e-21
-0.4987697081875	-1.8287074382773484e-21
-0.49870867303125	-1.832404526302143e-21
-0.498647637875	-1.8360772759938706e-21
-0.49858660271875	-1.8397259118982116e-21
-0.4985255675625	-1.8433507252205065e-21
-0.49846453240625	-1.846952062532783e-21
-0.49840349725	-1.8505303129736004e-21
-0.49834246209375	-1.854085894354792e-21
-0.4982814269375	-1.857619237320132e-21
-0.49822039178125	-1.8611307678785985e-21
-0.498159356625	-1.8646208902058367e-21
-0.49809832146875	-1.868089970109379e-21
-0.4980372863125	-1.871538319156359e-21
-0.49797625115625	-1.8749661811223336e-21
-0.497915216	-1.8783737211183113e-21
-0.49785418084375	-1.881761016236475e-21
-0.4977931456875	-1.88512804817214e-21
-0.49773211053125	-1.888474699413629e-21
-0.497671075375	-1.8918007536575045e-21
-0.49761004021875	-1.8951058999562974e-21
-0.4975490050625	-1.8983897398922867e-21
-0.49748796990625	-1.9016517977711087e-21
-0.49742693475	-1.904891533862165e-21
-0.49736589959375	-1.908108359926066e-21
-0.4973048644375	-1.9113016565360057e-21
-0.49724382928125	-1.9144707919747955e-21
-0.497182794125	-1.917615142069833e-21
-0.49712175896875	-1.9207341102458065e-21
-0.4970607238125	-1.9238271466601236e-21
-0.49699968865625	-1.9268937655993387e-21
-0.4969386535	-1.9299335610777138e-21
-0.49687761834375	-1.9329462201095135e-21
-0.4968165831875	-1.9359315332430586e-21
-0.49675554803125	-1.9388894021537452e-21
-0.496694512875	-1.9418198433701833e-21
-0.49663347771875	-1.944722987694443e-21
-0.4965724425625	-1.9475990758412304e-21
-0.49651140740625	-1.9504484505348163e-21
-0.49645037225	-1.953271545104317e-21
-0.49638933709375	-1.956068869021931e-21
-0.4963283019375	-1.9588409908009127e-21
-0.49626726678125	-1.961588518586338e-21
-0.496206231625	-1.9643120790174287e-21
-0.49614519646875	-1.967012295035435e-21
-0.4960841613125	-1.9696897634862357e-21
-0.49602312615625	-1.9723450335551762e-21
-0.495962091	-1.974978586729884e-21
-0.49590105584375	-1.9775908187500968e-21
-0.4958400206875	-1.9801820241862298e-21
-0.49577898553125	-1.982752384252016e-21
-0.495717950375	-1.9853019582296576e-21
-0.49565691521875	-1.987830678780505e-21
-0.4955958800625	-1.9903383514935617e-21
-0.49553484490625	-1.9928246588235683e-21
-0.49547380975	-1.9952891680955003e-21
-0.49541277459375	-1.9977313432645563e-21
-0.4953517394375	-2.0001505603610207e-21
-0.49529070428125	-2.0025461262661732e-21
-0.495229669125	-2.0049172999003294e-21
-0.49516863396875	-2.0072633149040704e-21
-0.4951075988125	-2.0095834032573513e-21
-0.49504656365625	-2.0118768192039067e-21
-0.4949855285	-2.0141428626239596e-21
-0.49492449334375	-2.0163809011235872e-21
-0.4948634581875	-2.0185903902670447e-21
-0.49480242303125	-2.0207708912626414e-21
-0.494741387875	-2.0229220852870454e-21
-0.49468035271875	-2.025043783895461e-21
-0.4946193175625	-2.0271359353160647e-21
-0.49455828240625	-2.029198626346427e-21
-0.49449724725	-2.031232079558002e-21
-0.49443621209375	-2.033236645906508e-21
-0.4943751769375	-2.035212793039409e-21
-0.49431414178125	-2.037161089557483e-21
-0.494253106625	-2.039082185705631e-21
-0.49419207146875	-2.040976791257929e-21
-0.4941310363125	-2.04284565131212e-21
-0.49407000115625	-2.044689520626507e-21
-0.494008966	-2.046509137361581e-21
-0.49394793084375	-2.0483051972580612e-21
-0.4938868956875	-2.050078329124122e-21
-0.49382586053125	-2.0518290723697678e-21
-0.493764825375	-2.0535578574054275e-21
-0.49370379021875	-2.055264989598988e-21
-0.4936427550625	-2.056950637271088e-21
-0.49358171990625	-2.058614824174181e-21
-0.49352068475	-2.0602574266607895e-21
-0.49345964959375	-2.0618781756230116e-21
-0.4933986144375	-2.0634766633503836e-21
-0.49333757928125	-2.065052355225431e-21
-0.493276544125	-2.06660460587515e-21
-0.49321550896875	-2.068132679117775e-21
-0.4931544738125	-2.0696357711060622e-21
-0.49309343865625	-2.071113036219868e-21
-0.4930324035	-2.072563614716245e-21
-0.49297136834375	-2.0739866608336247e-21
-0.4929103331875	-2.0753813705696954e-21
-0.49284929803125	-2.0767470084658082e-21
-0.492788262875	-2.07808293229721e-21
-0.49272722771875	-2.079388614775665e-21
-0.4926661925625	-2.0806636618201038e-21
-0.49260515740625	-2.0819078266476087e-21
-0.49254412225	-2.083121018765239e-21
-0.49248308709375	-2.0843033076800882e-21
-0.4924220519375	-2.0854549215037314e-21
-0.49236101678125	-2.086576240332643e-21
-0.492299981625	-2.087667784468284e-21
-0.49223894646875	-2.088730197759074e-21
-0.4921779113125	-2.0897642265742314e-21
-0.49211687615625	-2.0907706953185724e-21
-0.492055841	-2.0917504792030865e-21
-0.49199480584375	-2.092704474873238e-21
-0.4919337706875	-2.093633569770117e-21
-0.49187273553125	-2.094538611174045e-21
-0.491811700375	-2.0954203760339025e-21
-0.49175066521875	-2.0962795428439554e-21
-0.4916896300625	-2.0971166665762813e-21
-0.49162859490625	-2.09793215744008e-21
-0.49156755975	-2.0987262643650783e-21
-0.49150652459375	-2.099499063975591e-21
-0.4914454894375	-2.100250455309505e-21
-0.49138445428125	-2.1009801603125007e-21
-0.491323419125	-2.1016877304682354e-21
-0.49126238396875	-2.102372559874215e-21
-0.4912013488125	-2.103033903792435e-21
-0.49114031365625	-2.103670901418128e-21
-0.4910792785	-2.1042826028861254e-21
-0.49101824334375	-2.1048680000912208e-21
-0.4909572081875	-2.1054260596499927e-21
-0.49089617303125	-2.1059557567310523e-21
-0.490835137875	-2.1064561089299934e-21
-0.49077410271875	-2.106926209128047e-21
-0.4907130675625	-2.1073652560982374e-21
-0.49065203240625	-2.1077725818319075e-21
-0.49059099725	-2.1081476748627187e-21
-0.49052996209375	-2.1084901983299686e-21
-0.4904689269375	-2.108800001567889e-21
-0.49040789178125	-2.1090771251354373e-21
-0.490346856625	-2.109321799793559e-21
-0.49028582146875	-2.1095344396327016e-21
-0.4902247863125	-2.1097156285252965e-21
-0.49016375115625	-2.1098660995800153e-21
-0.490102716	-2.1099867090634996e-21
-0.49004168084375	-2.110078406270942e-21
-0.4899806456875	-2.1101422001633782e-21
-0.48991961053125	-2.110179123644484e-21
-0.489858575375	-2.1101901965920867e-21
-0.48979754021875	-2.1101763894348054e-21
-0.4897365050625	-2.1101385890927355e-21
-0.48967546990625	-2.1100775678303477e-21
-0.48961443475	-2.109993955822942e-21
-0.48955339959375	-2.109888219090937e-21
-0.4894923644375	-2.1097606435774116e-21
-0.48943132928125	-2.109611325888114e-21
-0.489370294125	-2.1094401710142735e-21
-0.48930925896875	-2.109246896568362e-21
-0.4892482238125	-2.1090310432207114e-21
-0.48918718865625	-2.1087919911614043e-21
-0.4891261535	-2.1085289825264628e-21
-0.48906511834375	-2.108241149169904e-21
-0.4890040831875	-2.1079275439252137e-21
-0.48894304803125	-2.1075871739256138e-21
-0.488882012875	-2.1072190352350278e-21
-0.48882097771875	-2.1068221478031328e-21
-0.4887599425625	-2.1063955897428847e-21
-0.48869890740625	-2.105938529547212e-21
-0.48863787225	-2.105450254551714e-21
-0.48857683709375	-2.1049301944165522e-21
-0.4885158019375	-2.104377939179148e-21
-0.48845476678125	-2.103793252194382e-21
-0.488393731625	-2.1031760777083857e-21
-0.48833269646875	-2.102526541521315e-21
-0.4882716613125	-2.1018449443020127e-21
-0.48821062615625	-2.1011317491510076e-21
-0.488149591	-2.100387564440556e-21
-0.48808855584375	-2.0996131221778397e-21
-0.4880275206875	-2.0988092525599935e-21
-0.48796648553125	-2.0979768552105793e-21
-0.487905450375	-2.0971168675683487e-21
-0.48784441521875	-2.096230231584789e-21
-0.4877833800625	-2.0953178608920366e-21
-0.48772234490625	-2.0943806102210027e-21
-0.48766130975	-2.0934192473283235e-21
-0.48760027459375	-2.0924344275445843e-21
-0.4875392394375	-2.0914266714661314e-21
-0.48747820428125	-2.09039634715031e-21
-0.487417169125	-2.0893436585042662e-21
-0.48735613396875	-2.0882686399050178e-21
-0.4872950988125	-2.0871711558690857e-21
-0.48723406365625	-2.0860509052438032e-21
-0.4871730285	-2.084907430863529e-21
-0.48711199334375	-2.083740135624407e-21
-0.4870509581875	-2.0825483039971644e-21
-0.48698992303125	-2.0813311274325874e-21
-0.486928887875	-2.0800877329612804e-21
-0.48686785271875	-2.078817213302807e-21
-0.4868068175625	-2.0775186568460365e-21
-0.48674578240625	-2.0761911786146308e-21
-0.48668474725	-2.074833952789808e-21
-0.48662371209375	-2.0734462437354885e-21
-0.4865626769375	-2.072027432743333e-21
-0.48650164178125	-2.0705770402361622e-21
-0.486440606625	-2.069094742974599e-21
-0.48637957146875	-2.0675803860732536e-21
-0.4863185363125	-2.0660339898654347e-21
-0.48625750115625	-2.0644557503098834e-21
-0.486196466	-2.0628460328576163e-21
-0.48613543084375	-2.061205360811556e-21
-0.4860743956875	-2.0595343981180947e-21
-0.48601336053125	-2.057833927004443e-21
-0.485952325375	-2.0561048219498e-21
-0.48589129021875	-2.054348020386876e-21
-0.4858302550625	-2.0525644896515474e-21
-0.48576921990625	-2.050755191723451e-21
-0.48570818475	-2.048921049149957e-21
-0.48564714959375	-2.0470629143120577e-21
-0.4855861144375	-2.0451815419678823e-21
-0.48552507928125	-2.0432775641608462e-21
-0.485464044125	-2.0413514675159353e-21
-0.48540300896875	-2.039403575478997e-21
-0.4853419738125	-2.0374340385564974e-21
-0.48528093865625	-2.0354428317473483e-21
-0.4852199035	-2.03342975756639e-21
-0.48515886834375	-2.031394455671313e-21
-0.4850978331875	-2.029336418072684e-21
-0.48503679803125	-2.027255008436186e-21
-0.484975762875	-2.0251494868844254e-21
-0.48491472771875	-2.0230190395853683e-21
-0.4848536925625	-2.0208628100530234e-21
-0.48479265740625	-2.0186799309133337e-21
-0.48473162225	-2.0164695560391045e-21
-0.48467058709375	-2.014230892149552e-21
-0.4846095519375	-2.01196322801615e-21
-0.48454851678125	-2.0096659595593526e-21
-0.484487481625	-2.0073386106358248e-21
-0.48442644646875	-2.004980849852035e-21
-0.4843654113125	-2.0025925024439678e-21
-0.48430437615625	-2.000173556223886e-21
-0.484243341	-1.9977241618290195e-21
-0.48418230584375	-1.9952446271437157e-21
-0.4841212706875	-1.9927354058405265e-21
-0.48406023553125	-1.9901970815274833e-21
-0.483999200375	-1.9876303477852687e-21
-0.48393816521875	-1.985035982682097e-21
-0.4838771300625	-1.9824148191934523e-21
-0.48381609490625	-1.979767715072772e-21
-0.48375505975	-1.977095523124616e-21
-0.48369402459375	-1.974399061415709e-21
-0.4836329894375	-1.97167908437194e-21
-0.48357195428125	-1.9689362557207586e-21
-0.483510919125	-1.96617112462743e-21
-0.48344988396875	-1.9633841076167134e-21
-0.4833888488125	-1.960575475863367e-21
-0.48332781365625	-1.9577453460191166e-21
-0.4832667785	-1.9548936769448363e-21
-0.48320574334375	-1.952020274011366e-21
-0.4831447081875	-1.9491247978977944e-21
-0.48308367303125	-1.946206776861256e-21
-0.483022637875	-1.9432656250549447e-21
-0.48296160271875	-1.940300666249395e-21
-0.4829005675625	-1.9373111593808703e-21
-0.48283953240625	-1.9342963246636075e-21
-0.48277849725	-1.9312553710973575e-21
-0.48271746209375	-1.928187525021763e-21
-0.4826564269375	-1.925092057912299e-21
-0.48259539178125	-1.9219683118417865e-21
-0.482534356625	-1.9188157221064036e-21
-0.48247332146875	-1.915633837416948e-21
-0.4824122863125	-1.912422336647287e-21
-0.48235125115625	-1.9091810400618526e-21
-0.482290216	-1.905909915551663e-21
-0.48222918084375	-1.9026090811834733e-21
-0.4821681456875	-1.899278802638226e-21
-0.48210711053125	-1.8959194848331153e-21
-0.482046075375	-1.8925316592085618e-21
-0.48198504021875	-1.8891159664123576e-21
-0.4819240050625	-1.8856731337769573e-21
-0.48186296990625	-1.882203950187448e-21
-0.48180193475	-1.8787092412645167e-21
-0.48174089959375	-1.875189844192634e-21
-0.4816798644375	-1.871646580646075e-21
-0.48161882928125	-1.8680802287086386e-21
-0.481557794125	-1.8644914963255435e-21
-0.48149675896875	-1.8608809995815507e-21
-0.4814357238125	-1.857249247119908e-21
-0.48137468865625	-1.8535966293110984e-21
-0.4813136535	-1.849923410514774e-21
-0.48125261834375	-1.8462297229288437e-21
-0.4811915831875	-1.8425155627999392e-21
-0.48113054803125	-1.8387807921122683e-21
-0.481069512875	-1.8350251465105703e-21
-0.48100847771875	-1.8312482473694907e-21
-0.4809474425625	-1.827449616084114e-21
-0.48088640740625	-1.823628690029928e-21
-0.48082537225	-1.819784841059387e-21
-0.48076433709375	-1.815917396492229e-21
-0.4807033019375	-1.8120256606488402e-21
-0.48064226678125	-1.808108937053456e-21
-0.480581231625	-1.8041665525025863e-21
-0.48052019646875	-1.800197880834637e-21
-0.4804591613125	-1.796202363931515e-21
-0.48039812615625	-1.792179529940347e-21
-0.480337091	-1.7881290095693585e-21
-0.48027605584375	-1.7840505501454733e-21
-0.4802150206875	-1.7799440244299517e-21
-0.48015398553125	-1.775809432630728e-21
-0.480092950375	-1.771646900138744e-21
-0.48003191521875	-1.7674566728289372e-21
-0.4799708800625	-1.7632391094471262e-21
-0.47990984490625	-1.7589946702316446e-21
-0.47984880975	-1.7547239016519667e-21
-0.47978777459375	-1.750427419021682e-21
-0.4797267394375	-1.746105888621572e-21
-0.47966570428125	-1.741760009540157e-21
-0.479604669125	-1.7373904957955788e-21
-0.47954363396875	-1.7329980582382056e-21
-0.4794825988125	-1.7285833852412512e-21
-0.47942156365625	-1.7241471234716318e-21
-0.4793605285	-1.7196898603749875e-21
-0.47929949334375	-1.7152121084441253e-21
-0.4792384581875	-1.7107142904780945e-21
-0.47917742303125	-1.706196727281533e-21
-0.479116387875	-1.701659630794754e-21
-0.47905535271875	-1.6971031016421817e-21
-0.4789943175625	-1.6925271295954987e-21
-0.47893328240625	-1.6879315984092941e-21
-0.47887224725	-1.6833162943944292e-21
-0.47881121209375	-1.6786809175508636e-21
-0.4787501769375	-1.67402509552218e-21
-0.47868914178125	-1.6693483980120018e-21
-0.478628106625	-1.6646503498748622e-21
-0.47856707146875	-1.6599304457974143e-21
-0.4785060363125	-1.655188168233246e-21
-0.47844500115625	-1.6504230058844396e-21
-0.478383966	-1.6456344706342774e-21
-0.47832293084375	-1.6408221139292894e-21
-0.4782618956875	-1.635985544549673e-21
-0.47820086053125	-1.631124446443784e-21
-0.478139825375	-1.6262385937756135e-21
-0.47807879021875	-1.6213278625299534e-21
-0.4780177550625	-1.6163922355386213e-21
-0.47795671990625	-1.6114317997427694e-21
-0.47789568475	-1.606446742015743e-21
-0.47783464959375	-1.6014373443962378e-21
-0.4777736144375	-1.596403973917764e-21
-0.47771257928125	-1.5913470677589104e-21
-0.477651544125	-1.5862671151211083e-21
-0.47759050896875	-1.581164637171683e-21
-0.4775294738125	-1.5760401667831944e-21
-0.47746843865625	-1.570894224625257e-21
-0.4774074035	-1.5657272897308306e-21
-0.47734636834375	-1.560539767058914e-21
-0.4772853331875	-1.5553319534842196e-21
-0.47722429803125	-1.5501039960431162e-21
-0.477163262875	-1.5448558466660638e-21
-0.47710222771875	-1.5395872618405737e-21
-0.4770411925625	-1.5342978768742416e-21
-0.47698015740625	-1.5289873012154998e-21
-0.47691912225	-1.5236551833650132e-21
-0.47685808709375	-1.5183012505407332e-21
-0.4767970519375	-1.512925335383606e-21
-0.47673601678125	-1.5075273921233525e-21
-0.476674981625	-1.5021075043244103e-21
-0.47661394646875	-1.496665884610227e-21
-0.4765529113125	-1.4912028666039504e-21
-0.47649187615625	-1.4857188902712222e-21
-0.476430841	-1.4802144825103184e-21
-0.47636980584375	-1.4746902348088117e-21
-0.4763087706875	-1.469146778891569e-21
-0.47624773553125	-1.4635847617399008e-21
-0.476186700375	-1.4580048209643613e-21
-0.47612566521875	-1.4524075593683836e-21
-0.4760646300625	-1.4467935187489516e-21
-0.47600359490625	-1.4411631579607266e-21
-0.47594255975	-1.4355168383993408e-21
-0.47588152459375	-1.4298548125959996e-21
-0.4758204894375	-1.42417721442625e-21
-0.47575945428125	-1.4184840544006648e-21
-0.475698419125	-1.4127752193102093e-21
-0.47563738396875	-1.4070504744492246e-21
-0.4755763488125	-1.4013094709551187e-21
-0.47551531365625	-1.395551760223775e-21
-0.4754542785	-1.3897768122297128e-21
-0.47539324334375	-1.3839840339227553e-21
-0.4753322081875	-1.3781727881844495e-21
-0.47527117303125	-1.3723424154076528e-21
-0.475210137875	-1.3664922577482957e-21
-0.47514910271875	-1.3606216823120303e-21
-0.4750880675625	-1.3547301005544177e-21
-0.47502703240625	-1.3488169862372519e-21
-0.47496599725	-1.3428818928682864e-21
-0.47490496209375	-1.336924468951055e-21
-0.4748439269375	-1.33094446844486e-21
-0.47478289178125	-1.3249417552609065e-21
-0.474721856625	-1.3189163056513895e-21
-0.47466082146875	-1.3128682101238277e-21
-0.4745997863125	-1.3067976713481638e-21
-0.47453875115625	-1.3007049954436993e-21
-0.474477716	-1.2945905771845586e-21
-0.47441668084375	-1.288454883272186e-21
-0.4743556456875	-1.2822984370029209e-21
-0.47429461053125	-1.2761218013978926e-21
-0.474233575375	-1.2699255593877426e-21
-0.47417254021875	-1.263710295876214e-21
-0.4741115050625	-1.2574765827068468e-21
-0.47405046990625	-1.2512249629489124e-21
-0.47398943475	-1.2449559341231993e-21
-0.47392839959375	-1.2386699337502644e-21
-0.4738673644375	-1.232367330513516e-21
-0.47380632928125	-1.226048419794429e-21
-0.473745294125	-1.2197134197190444e-21
-0.47368425896875	-1.2133624677448496e-21
-0.4736232238125	-1.2069956211921703e-21
-0.47356218865625	-1.2006128630779644e-21
-0.4735011535	-1.1942141109993509e-21
-0.47344011834375	-1.1877992264222112e-21
-0.4733790831875	-1.1813680241097484e-21
-0.47331804803125	-1.174920284094913e-21
-0.473257012875	-1.1684557671755e-21
-0.47319597771875	-1.1619742294218104e-21
-0.4731349425625	-1.1554754341400118e-21
-0.47307390740625	-1.148959165357251e-21
-0.47301287225	-1.1424252399752225e-21
-0.47295183709375	-1.135873514286905e-21
-0.4728908019375	-1.1293038888325055e-21
-0.47282976678125	-1.1227163130378373e-21
-0.472768731625	-1.116110786911228e-21
-0.47270769646875	-1.1094873608803908e-21
-0.4726466613125	-1.1028461354411444e-21
-0.47258562615625	-1.096187259387495e-21
-0.472524591	-1.0895109243623595e-21
-0.47246355584375	-1.0828173561244173e-21
-0.4724025206875	-1.0761068067061493e-21
-0.47234148553125	-1.0693795483094142e-21
-0.472280450375	-1.0626358648346612e-21
-0.47221941521875	-1.0558760407481864e-21
-0.4721583800625	-1.0491003517884027e-21
-0.47209734490625	-1.0423090580737305e-21
-0.47203630975	-1.0355023962249127e-21
-0.47197527459375	-1.0286805721412191e-21
-0.4719142394375	-1.0218437577898853e-21
-0.47185320428125	-1.0149920903308959e-21
-0.471792169125	-1.0081256713819928e-21
-0.47173113396875	-1.0012445664701972e-21
-0.4716700988125	-9.943488074597316e-22
-0.47160906365625	-9.874383995870153e-22
-0.4715480285	-9.805133283899274e-22
-0.47148699334375	-9.7357356430391e-22
-0.4714259581875	-9.666190686467146e-22
-0.47136492303125	-9.596498016674535e-22
-0.471303887875	-9.52665730926878e-22
-0.47124285271875	-9.456668406491206e-22
-0.4711818175625	-9.386531410798286e-22
-0.47112078240625	-9.316246732803314e-22
-0.47105974725	-9.24581510229857e-22
-0.47099871209375	-9.175237608228399e-22
-0.4709376769375	-9.104515757879295e-22
-0.47087664178125	-9.033651496061728e-22
-0.470815606625	-8.962647185622336e-22
-0.47075457146875	-8.891505569777267e-22
-0.4706935363125	-8.820229722544204e-22
-0.47063250115625	-8.748822997978176e-22
-0.470571466	-8.677288972415758e-22
-0.47051043084375	-8.605631373327454e-22
-0.4704493956875	-8.5338539935026e-22
-0.47038836053125	-8.46196058628288e-22
-0.470327325375	-8.389954763207701e-22
-0.47026629021875	-8.317839916870465e-22
-0.4702052550625	-8.2456191625779275e-22
-0.47014421990625	-8.173295281057664e-22
-0.47008318475	-8.100870652874155e-22
