Time	Frequency
-0.5000357552812495	-0.8000084003009473
-0.49997472012499955	-0.799337521844202
-0.49991368496874955	-0.7986533876993965
-0.49985264981249955	-0.7979560128699044
-0.49979161465624955	-0.7972454140184057
-0.49973057949999955	-0.7965216090542796
-0.49966954434374955	-0.7957846168535211
-0.49960850918749955	-0.7950344570325325
-0.49954747403124955	-0.794271149524047
-0.49948643887499955	-0.7934947138861722
-0.49942540371874955	-0.7927051687488846
-0.49936436856249955	-0.791902531254166
-0.49930333340624955	-0.7910868163634905
-0.49924229824999955	-0.7902580366258773
-0.49918126309374955	-0.7894162024279302
-0.49912022793749955	-0.7885613221836398
-0.49905919278124955	-0.7876934024340504
-0.49899815762499955	-0.7868124481197771
-0.49893712246874955	-0.7859184629739431
-0.49887608731249955	-0.7850114498885772
-0.49881505215624955	-0.7840914113175017
-0.49875401699999955	-0.783158349674022
-0.49869298184374955	-0.7822122675985028
-0.49863194668749955	-0.7812531682137029
-0.49857091153124955	-0.7802810555063793
-0.49850987637499955	-0.7792959347604899
-0.49844884121874955	-0.7782978129695676
-0.49838780606249955	-0.7772866991141154
-0.49832677090624955	-0.7762626041339871
-0.49826573574999955	-0.7752255408266134
-0.49820470059374955	-0.7741755238127989
-0.49814366543749955	-0.7731125692711881
-0.49808263028124955	-0.772036694508913
-0.49802159512499955	-0.7709479175738025
-0.49796055996874955	-0.7698462571063963
-0.49789952481249955	-0.7687317325811526
-0.49783848965624955	-0.767604364195309
-0.49777745449999955	-0.7664641722884338
-0.49771641934374955	-0.7653111772855752
-0.49765538418749955	-0.7641453998551472
-0.49759434903124955	-0.7629668605702599
-0.49753331387499955	-0.7617755795775856
-0.49747227871874955	-0.7605715767595601
-0.49741124356249955	-0.7593548721672042
-0.49735020840624955	-0.7581254861202341
-0.49728917324999955	-0.7568834389278702
-0.49722813809374955	-0.7556287508812405
-0.49716710293749955	-0.7543614425048335
-0.49710606778124955	-0.7530815345879425
-0.49704503262499955	-0.7517890479572226
-0.49698399746874955	-0.7504840030884233
-0.49692296231249955	-0.7491664198177473
-0.49686192715624955	-0.7478363173586202
-0.49680089199999955	-0.7464937143258532
-0.49673985684374955	-0.7451386287619749
-0.49667882168749955	-0.7437710783189987
-0.49661778653124955	-0.742391080034223
-0.49655675137499955	-0.740998649629875
-0.49649571621874955	-0.7395938012807199
-0.49643468106249955	-0.7381765482045323
-0.49637364590624955	-0.7367469034184528
-0.49631261074999955	-0.7353048799281175
-0.49625157559374955	-0.7338504905153688
-0.49619054043749955	-0.7323837478564644
-0.49612950528124955	-0.7309046650603128
-0.49606847012499955	-0.7294132565839426
-0.49600743496874955	-0.7279095392653974
-0.49594639981249955	-0.7263935325954675
-0.49588536465624955	-0.724865258517838
-0.49582432949999955	-0.7233247415033985
-0.49576329434374955	-0.7217720085004089
-0.49570225918749955	-0.7202070888716116
-0.49564122403124955	-0.7186300146959977
-0.49558018887499955	-0.7170408207440816
-0.49551915371874955	-0.7154395438360673
-0.49545811856249955	-0.713826222034146
-0.49539708340624955	-0.7122008936401288
-0.49533604824999955	-0.7105635960929715
-0.49527501309374955	-0.7089143652272787
-0.49521397793749955	-0.7072532347249142
-0.49515294278124955	-0.7055802355996947
-0.49509190762499955	-0.7038953958632047
-0.49503087246874955	-0.7021987400543402
-0.49496983731249955	-0.7004902885897893
-0.49490880215624955	-0.6987700575786048
-0.49484776699999955	-0.6970380593946682
-0.49478673184374955	-0.6952943036861519
-0.49472569668749955	-0.6935387984367596
-0.49466466153124955	-0.6917715509481623
-0.49460362637499955	-0.6899925688905064
-0.49454259121874955	-0.6882018612637857
-0.49448155606249955	-0.6863994390638647
-0.49442052090624955	-0.6845853163447362
-0.49435948574999955	-0.6827595117547581
-0.49429845059374955	-0.6809220492539222
-0.49423741543749955	-0.6790729579999276
-0.49417638028124955	-0.6772122725173653
-0.49411534512499955	-0.6753400329629109
-0.49405430996874955	-0.6734562846586345
-0.49399327481249955	-0.6715610767888757
-0.49393223965624955	-0.669654461254441
-0.49387120449999955	-0.6677364921723693
-0.49381016934374955	-0.6658072246379843
-0.49374913418749955	-0.663866712503161
-0.49368809903124955	-0.6619150067178409
-0.49362706387499955	-0.6599521543667811
-0.49356602871874955	-0.6579781975353164
-0.49350499356249955	-0.6559931722833975
-0.49344395840624955	-0.6539971082111181
-0.49338292324999955	-0.6519900281237319
-0.49332188809374955	-0.6499719478049234
-0.49326085293749955	-0.6479428769028363
-0.49319981778124955	-0.6459028208719394
-0.49313878262499955	-0.6438517826263828
-0.49307774746874955	-0.6417897633231744
-0.49301671231249955	-0.6397167630888667
-0.49295567715624955	-0.6376327827564806
-0.49289464199999955	-0.6355378263354512
-0.49283360684374955	-0.6334319029690478
-0.49277257168749955	-0.6313150282656921
-0.49271153653124955	-0.6291872253438466
-0.49265050137499955	-0.6270485252514645
-0.49258946621874955	-0.6248989670823399
-0.49252843106249955	-0.6227385982994297
-0.49246739590624955	-0.6205674744994789
-0.49240636074999955	-0.6183856582547735
-0.49234532559374955	-0.6161932177142009
-0.49228429043749955	-0.6139902246773795
-0.49222325528124955	-0.611776751869008
-0.49216222012499955	-0.6095528705498099
-0.49210118496874955	-0.6073186490348402
-0.49204014981249955	-0.6050741512197921
-0.49197911465624955	-0.602819434486385
-0.49191807949999955	-0.6005545478966338
-0.49185704434374955	-0.598279531506543
-0.49179600918749955	-0.5959944160016918
-0.49173497403124955	-0.5936992224325913
-0.49167393887499955	-0.5913939629949108
-0.49161290371874955	-0.5890786425158049
-0.49155186856249955	-0.5867532600129826
-0.49149083340624955	-0.5844178106880904
-0.49142979824999955	-0.5820722883249004
-0.49136876309374955	-0.5797166881610608
-0.49130772793749955	-0.5773510100160172
-0.49124669278124955	-0.5749752599998091
-0.49118565762499955	-0.5725894509877383
-0.49112462246874955	-0.5701936040647233
-0.49106358731249955	-0.5677877505249213
-0.49100255215624955	-0.5653719326476275
-0.49094151699999955	-0.5629462031763118
-0.49088048184374955	-0.5605106243166221
-0.49081944668749955	-0.5580652668167484
-0.49075841153124955	-0.5556102084843476
-0.49069737637499955	-0.5531455313998876
-0.49063634121874955	-0.5506713187107282
-0.49057530606249955	-0.5481876520700756
-0.49051427090624955	-0.5456946094698132
-0.49045323574999955	-0.5431922626096628
-0.49039220059374955	-0.5406806741119919
-0.49033116543749955	-0.5381598960078015
-0.49027013028124955	-0.5356299697310336
-0.49020909512499955	-0.5330909264472661
-0.49014805996874955	-0.5305427871968542
-0.49008702481249955	-0.5279855636072682
-0.49002598965624955	-0.5254192597188114
-0.48996495449999955	-0.5228438747168325
-0.48990391934374955	-0.5202594060724935
-0.48984288418749955	-0.5176658523836349
-0.48978184903124955	-0.5150632159127642
-0.48972081387499955	-0.5124515051385433
-0.48965977871874955	-0.5098307369648224
-0.48959874356249955	-0.5072009385596115
-0.48953770840624955	-0.5045621486885694
-0.48947667324999955	-0.5019144179915099
-0.48941563809374955	-0.4992578087632785
-0.48935460293749955	-0.4965923943226589
-0.48929356778124955	-0.4939182568803132
-0.48923253262499955	-0.49123548433636105
-0.48917149746874955	-0.48854416708250176
-0.48911046231249955	-0.48584439463391627
-0.48904942715624955	-0.4831362521380906
-0.48898839199999955	-0.48041981747988505
-0.48892735684374955	-0.4776951589049038
-0.48886632168749955	-0.4749623327433418
-0.48880528653124955	-0.47222138169400535
-0.48874425137499955	-0.4694723346255046
-0.48868321621874955	-0.46671520779476017
-0.48862218106249955	-0.4639500061051783
-0.48856114590624955	-0.46117672445112945
-0.48850011074999955	-0.4583953505299143
-0.48843907559374955	-0.455605868822228
-0.48837804043749955	-0.4528082645961491
-0.48831700528124955	-0.4500025279813314
-0.48825597012499955	-0.447188657992336
-0.48819493496874955	-0.4443666655908114
-0.48813389981249955	-0.4415365758383116
-0.48807286465624955	-0.43869842977875717
-0.48801182949999955	-0.43585228560417605
-0.48795079434374955	-0.43299821842921166
-0.48788975918749955	-0.43013631916457434
-0.48782872403124955	-0.42726669232135256
-0.48776768887499955	-0.4243894521448311
-0.48770665371874955	-0.42150471858564903
-0.48764561856249955	-0.41861261352274753
-0.48758458340624955	-0.4157132557920165
-0.48752354824999955	-0.4128067562491684
-0.48746251309374955	-0.409893214757331
-0.48740147793749955	-0.4069727178956255
-0.48734044278124955	-0.4040453359636046
-0.48727940762499955	-0.40111112044674163
-0.48721837246874955	-0.39817010335284964
-0.48715733731249955	-0.3952222981186406
-0.48709630215624955	-0.3922677018167701
-0.48703526699999955	-0.3893062985496145
-0.48697423184374955	-0.3863380628801569
-0.48691319668749955	-0.38336296328494385
-0.48685216153124955	-0.3803809669689532
-0.48679112637499955	-0.377392045513564
-0.48673009121874955	-0.37439617957724325
-0.48666905606249955	-0.37139336266565326
-0.48660802090624955	-0.3683836048303721
-0.48654698574999955	-0.365366935216068
-0.48648595059374955	-0.362343402269442
-0.48642491543749955	-0.3593130730248188
-0.48636388028124955	-0.35627603253827433
-0.48630284512499955	-0.3532323821662304
-0.48624180996874955	-0.35018223638939217
-0.48618077481249955	-0.3471257191113642
-0.48611973965624955	-0.3440629592849812
-0.48605870449999955	-0.3409940862284572
-0.48599766934374955	-0.3379192255693944
-0.48593663418749955	-0.3348384954744258
-0.48587559903124955	-0.3317520026058621
-0.48581456387499955	-0.32865983827896084
-0.48575352871874955	-0.3255620758994802
-0.48569249356249955	-0.3224587700593027
-0.48563145840624955	-0.31934995662838056
-0.48557042324999955	-0.3162356536817499
-0.48550938809374955	-0.3131158634977958
-0.48544835293749955	-0.30999057499971183
-0.48538731778124955	-0.30685976660284225
-0.48532628262499955	-0.3037234105967222
-0.48526524746874955	-0.3005814784016956
-0.48520421231249955	-0.29743394473996365
-0.48514317715624955	-0.2942807909705525
-0.48508214199999955	-0.291122008961241
-0.48502110684374955	-0.2879576048582506
-0.48496007168749955	-0.2847876012126056
-0.48489903653124955	-0.28161203804915547
-0.48483800137499955	-0.2784309738151162
-0.48477696621874955	-0.27524448531047674
-0.48471593106249955	-0.27205266606755224
-0.48465489590624955	-0.26885562347875797
-0.48459386074999955	-0.26565347507812687
-0.48453282559374955	-0.2624463447543704
-0.48447179043749955	-0.25923435901798203
-0.48441075528124955	-0.2560176427104154
-0.48434972012499955	-0.25279631467382185
-0.48428868496874955	-0.24957048439689794
-0.48422764981249955	-0.24634024907990754
-0.48416661465624955	-0.24310569077241176
-0.48410557949999955	-0.23986687441488452
-0.48404454434374955	-0.23662384701509867
-0.48398350918749955	-0.23337663790531246
-0.48392247403124955	-0.230125260322763
-0.48386143887499955	-0.22686971424962507
-0.48380040371874955	-0.22360998985427094
-0.48373936856249955	-0.22034607082725025
-0.48367833340624955	-0.21707793758736516
-0.48361729824999955	-0.21380557087347407
-0.48355626309374955	-0.21052895619021045
-0.48349522793749955	-0.2072480884604741
-0.48343419278124955	-0.2039629753062284
-0.48337315762499955	-0.20067363890551618
-0.48331212246874955	-0.1973801177064121
-0.48325108731249955	-0.1940824678386068
-0.48319005215624955	-0.19078076320296095
-0.48312901699999955	-0.18747509442604393
-0.48306798184374955	-0.18416556733570652
-0.48300694668749955	-0.18085230061124274
-0.48294591153124955	-0.1775354220295895
-0.48288487637499955	-0.17421506428325917
-0.48282384121874955	-0.17089136142430572
-0.48276280606249955	-0.1675644451696796
-0.48270177090624955	-0.16423444069046828
-0.48264073574999955	-0.16090146246933726
-0.48257970059374955	-0.1575656105908687
-0.48251866543749955	-0.15422696813878173
-0.48245763028124955	-0.15088559984248687
-0.48239659512499955	-0.14754155159077864
-0.48233555996874955	-0.14419485121071138
-0.48227452481249955	-0.1408455101321876
-0.48221348965624955	-0.1374935250070493
-0.48215245449999955	-0.13413888042132063
-0.48209141934374955	-0.1307815531506513
-0.48203038418749955	-0.12742151625852788
-0.48196934903124955	-0.12405874299606157
-0.48190831387499955	-0.12069321101390816
-0.48184727871874955	-0.11732490631501896
-0.48178624356249955	-0.11395382693890557
-0.48172520840624955	-0.11057998624738537
-0.48166417324999955	-0.10720341534368791
-0.48160313809374955	-0.1038241641236898
-0.48154210293749955	-0.10044230100070506
-0.48148106778124955	-0.09705791243589565
-0.48142003262499955	-0.09367110219869386
-0.48135899746874955	-0.09028198947529868
-0.48129796231249955	-0.08689070595703302
-0.48123692715624955	-0.08349739166283
-0.48117589199999955	-0.08010218973237374
-0.48111485684374955	-0.07670524165645862
-0.48105382168749955	-0.07330668305792581
-0.48099278653124955	-0.0699066394115821
-0.48093175137499955	-0.0665052222437991
-0.48087071621874955	-0.06310252609818762
-0.48080968106249955	-0.05969862611710575
-0.48074864590624955	-0.05629357675537534
-0.48068761074999955	-0.05288741174358383
-0.48062657559374955	-0.04948014483613624
-0.48056554043749955	-0.046071771644459726
-0.48050450528124955	-0.04266227307088532
-0.48044347012499955	-0.03925161991972382
-0.48038243496874955	-0.035839777615855314
-0.48032139981249955	-0.032426710734435024
-0.48026036465624955	-0.029012387897238964
-0.48019932949999955	-0.025596786694756173
-0.48013829434374955	-0.022179897766633597
-0.48007725918749955	-0.018761728210768307
-0.48001622403124955	-0.01534230459995784
-0.47995518887499955	-0.011921674931984023
-0.47989415371874955	-0.008499909376643114
-0.47983311856249955	-0.005077099955776859
-0.47977208340624955	-0.0016533584554229356
-0.47971104824999955	0.001771186981809528
-0.47965001309374955	0.005196395449168074
-0.47958897793749955	0.008622117618527563
-0.47952794278124955	0.012048201163708243
-0.47946690762499955	0.015474495656260811
-0.47940587246874955	0.018900856727591522
-0.47934483731249955	0.02232715089791624
-0.47928380215624955	0.025753260553825656
-0.47922276699999955	0.029179087897259065
-0.47916173184374955	0.03260455735678016
-0.47910069668749955	0.036029616063580676
-0.47903966153124955	0.039454232971463006
-0.47897862637499955	0.04287839750024252
-0.47891759121874955	0.04630211771673048
-0.47885655606249955	0.04972541737339946
-0.47879552090624955	0.053148331247667456
-0.47873448574999955	0.05657089941575155
-0.47867345059374955	0.05999316175020358
-0.47861241543749955	0.06341515296634143
-0.47855138028124955	0.06683689780276728
-0.47849034512499955	0.07025840637717955
-0.47842930996874955	0.07367967001595538
-0.47836827481249955	0.07710065782484887
-0.47830723965624955	0.0805213146095512
-0.47824620449999955	0.08394156075830311
-0.47818516934374955	0.08736129366038098
-0.47812413418749955	0.09078038957048813
-0.47806309903124955	0.09419870640443473
-0.47800206387499955	0.09761608846771977
-0.47794102871874955	0.10103237186496138
-0.47787999356249955	0.10444738967481657
-0.47781895840624955	0.1078609778284714
-0.47775792324999955	0.11127298146793448
-0.47769688809374955	0.11468326071283394
-0.47763585293749955	0.11809169528824359
-0.47757481778124955	0.12149818774399637
-0.47751378262499955	0.1249026659009765
-0.47745274746874955	0.12830508458529966
-0.47739171231249955	0.13170542548040007
-0.47733067715624955	0.13510369488977148
-0.47726964199999955	0.13849992035487724
-0.47720860684374955	0.14189414662759284
-0.47714757168749955	0.1452864301961672
-0.47708653653124955	0.14867683249221791
-0.47702550137499955	0.1520654133303757
-0.47696446621874955	0.1554522246400475
-0.47690343106249955	0.15883730433288823
-0.47684239590624955	0.16222067101399024
-0.47678136074999955	0.165602319466113
-0.47672032559374955	0.16898221728322477
-0.47665929043749955	0.1723603032735811
-0.47659825528124955	0.17573648685680368
-0.47653722012499955	0.17911064846198999
-0.47647618496874955	0.1824826423715126
-0.47641514981249955	0.18585230178649528
-0.47635411465624955	0.18921944451352962
-0.47629307949999955	0.19258387934291518
-0.47623204434374955	0.1959454135767176
-0.47617100918749955	0.19930386056139324
-0.47610997403124955	0.20265904670520862
-0.47604893887499955	0.20601081832864268
-0.47598790371874955	0.20935904778934641
-0.47592686856249955	0.2127036381502359
-0.47586583340624955	0.2160445256904624
-0.47580479824999955	0.21938167997023036
-0.47574376309374955	0.22271510251656537
-0.47568272793749955	0.22604482440516563
-0.47562169278124955	0.22937090183462294
-0.47556065762499955	0.23269341000367139
-0.47549962246874955	0.23601243591419857
-0.47543858731249955	0.23932807021716687
-0.47537755215624955	0.2426403986633802
-0.47531651699999955	0.24594949365914726
-0.47525548184374955	0.24925540628216794
-0.47519444668749955	0.2525581592591444
-0.47513341153124955	0.2558577415221624
-0.47507237637499955	0.25915410499541525
-0.47501134121874955	0.2624471635513596
-0.47495030606249955	0.2657367938097348
-0.47488927090624955	0.2690228379782996
-0.47482823574999955	0.2723051090192406
-0.47476720059374955	0.2755833979249065
-0.47470616543749955	0.27885748212538936
-0.47464513028124955	0.28212713412151025
-0.47458409512499955	0.28539213051204626
-0.47452305996874955	0.28865226196308313
-0.47446202481249955	0.2919073430951705
-0.47440098965624955	0.2951572203019391
-0.47433995449999955	0.29840177731108924
-0.47427891934374955	0.3016409391861496
-0.47421788418749955	0.3048746743335206
-0.47415684903124955	0.30810299390130824
-0.47409581387499955	0.3113259486528728
-0.47403477871874955	0.31454362361918276
-0.47397374356249955	0.31775613102073075
-0.47391270840624955	0.32096360189984424
-0.47385167324999955	0.3241661760632015
-0.47379063809374955	0.3273639907084839
-0.47372960293749955	0.3305571695575495
-0.47366856778124955	0.3337458131615835
-0.47360753262499955	0.33692999023415277
-0.47354649746874955	0.3401097306505313
-0.47348546231249955	0.34328502063310695
-0.47342442715624955	0.34645580049172087
-0.47336339199999955	0.3496219653033059
-0.47330235684374955	0.35278336804277305
-0.47324132168749955	0.35593982482186176
-0.47318028653124955	0.3590911227606431
-0.47311925137499955	0.3622370299890767
-0.47305821621874955	0.3653773064980793
-0.47299718106249955	0.36851171538404587
-0.47293614590624955	0.3716400337683428
-0.47287511074999955	0.374762062476259
-0.47281407559374955	0.37787763464919527
-0.47275304043749955	0.38098662259185506
-0.47269200528124955	0.3840889407637824
-0.47263097012499955	0.38718454382637013
-0.47256993496874955	0.3902734179001578
-0.47250889981249955	0.3933555634321709
-0.47244786465624955	0.3964309766597148
-0.47238682949999955	0.3994996403912696
-0.47232579434374955	0.40256152445127313
-0.47226475918749955	0.4056165896058375
-0.47220372403124955	0.40866479209815465
-0.47214268887499955	0.4117060882485865
-0.47208165371874955	0.41474043879845435
-0.47202061856249955	0.4177678127423002
-0.47195958340624955	0.4207881901926277
-0.47189854824999955	0.42380156397251606
-0.47183751309374955	0.4268079397608255
-0.47177647793749955	0.42980733505114915
-0.47171544278124955	0.43279977738240055
-0.47165440762499955	0.4357853014771077
-0.47159337246874955	0.43876394537323565
-0.47153233731249955	0.4417357465863003
-0.47147130215624955	0.4447007384228411
-0.47141026699999955	0.44765894609127277
-0.47134923184374955	0.4506103829616011
-0.47128819668749955	0.4535550475428331
-0.47122716153124955	0.45649292132882696
-0.47116612637499955	0.4594239670616473
-0.47110509121874955	0.46234812751750065
-0.47104405606249955	0.4652653257646001
-0.47098302090624955	0.468175466735876
-0.47092198574999955	0.47107843921717296
-0.47086095059374955	0.4739741186034234
-0.47079991543749955	0.4768623708508403
-0.47073888028124955	0.47974305651251986
-0.47067784512499955	0.4826160342161682
-0.47061680996874955	0.4854811645918374
-0.47055577481249955	0.4883383145137713
-0.47049473965624955	0.49118736016398395
-0.47043370449999955	0.4940281891748207
