Time	Frequency
-0.5000107283437529	7.201478148330103e-25
-0.49994969318750293	6.42633128982935e-25
-0.49988865803125293	5.630423089212468e-25
-0.49982762287500293	4.816113691149455e-25
-0.49976658771875293	3.9858190948629087e-25
-0.49970555256250293	3.1420061351260657e-25
-0.49964451740625293	2.287183350509233e-25
-0.49958348225000293	1.4238932219123431e-25
-0.49952244709375293	5.547061804842033e-26
-0.49946141193750293	-3.17787729941282e-26
-0.49940037678125293	-1.1909877586420987e-25
-0.49933934162500293	-2.0622895803855097e-25
-0.49927830646875293	-2.929090687526988e-25
-0.49921727131250293	-3.7888029784475253e-25
-0.49915623615625293	-4.638856927458161e-25
-0.49909520100000293	-5.47670976105987e-25
-0.49903416584375293	-6.299854394772699e-25
-0.49897313068750293	-7.105825399230623e-25
-0.49891209553125293	-7.89220939520078e-25
-0.49885106037500293	-8.65664653780086e-25
-0.49879002521875293	-9.396845137090916e-25
-0.49872899006250293	-1.01105827295038e-24
-0.49866795490625293	-1.0795713243867905e-24
-0.49860691975000293	-1.1450179947549075e-24
-0.49854588459375293	-1.2072010916051942e-24
-0.49848484943750293	-1.2659334447348335e-24
-0.49842381428125293	-1.3210381704478354e-24
-0.49836277912500293	-1.372348725161623e-24
-0.49830174396875293	-1.4197103063001059e-24
-0.49824070881250293	-1.4629796681445588e-24
-0.49817967365625293	-1.5020255965752659e-24
-0.49811863850000293	-1.5367297045102137e-24
-0.49805760334375293	-1.5669864451085673e-24
-0.49799656818750293	-1.5927034352002758e-24
-0.49793553303125293	-1.6138019921002795e-24
-0.49787449787500293	-1.6302171978129353e-24
-0.49781346271875293	-1.6418980024382472e-24
-0.49775242756250293	-1.6488076698781075e-24
-0.49769139240625293	-1.6509236555354652e-24
-0.49763035725000293	-1.6482377573626946e-24
-0.49756932209375293	-1.6407561862251753e-24
-0.49750828693750293	-1.6284994862134161e-24
-0.49744725178125293	-1.611502554129454e-24
-0.49738621662500293	-1.589814438629038e-24
-0.49732518146875293	-1.5634983307901503e-24
-0.49726414631250293	-1.5326312640543208e-24
-0.49720311115625293	-1.4973039472707286e-24
-0.49714207600000293	-1.4576205089931268e-24
-0.49708104084375293	-1.4136981192406005e-24
-0.49702000568750293	-1.3656667639369254e-24
-0.49695897053125293	-1.313668723527319e-24
-0.49689793537500293	-1.2578582434721096e-24
-0.49683690021875293	-1.1984010537305396e-24
-0.49677586506250293	-1.1354738698339901e-24
-0.49671482990625293	-1.0692638177732995e-24
-0.49665379475000293	-9.999679960139721e-25
-0.49659275959375293	-9.277927885112246e-25
-0.49653172443750293	-8.529531868288366e-25
-0.49647068928125293	-7.756724168343351e-25
-0.49640965412500293	-6.96180890371697e-25
-0.49634861896875293	-6.1471579186899995e-25
-0.49628758381250293	-5.315203444817565e-25
-0.49622654865625293	-4.468429314399884e-25
-0.49616551350000293	-3.609364248663347e-25
-0.49610447834375293	-2.7405749900927187e-25
-0.49604344318750293	-1.8646584851169043e-25
-0.49598240803125293	-9.842314252596158e-26
-0.49592137287500293	-1.0192738402308436e-26
-0.49586033771875293	7.796163542891396e-26
-0.49579930256250293	1.6577637126801224e-25
-0.49573826740625293	2.5298868724063393e-25
-0.49567723225000293	3.3933788149207253e-25
-0.49561619709375293	4.245655006198859e-25
-0.49555516193750293	5.084167127354991e-25
-0.49549412678125293	5.906405576025157e-25
-0.49543309162500293	6.709910758635639e-25
-0.49537205646875293	7.492280591421794e-25
-0.49531102131250293	8.251172076940682e-25
-0.49524998615625293	8.98431806853644e-25
-0.49518895100000293	9.689525450301003e-25
-0.49512791584375293	1.0364685328549758e-24
-0.49506688068750293	1.1007781721700298e-24
-0.49500584553125293	1.1616892084787189e-24
-0.49494481037500293	1.2190197835162034e-24
-0.49488377521875293	1.272598917659358e-24
-0.49482274006250293	1.3222667783888733e-24
-0.49476170490625293	1.3678753958127943e-24
-0.49470066975000293	1.4092891880093197e-24
-0.49463963459375293	1.4463849919355496e-24
-0.49457859943750293	1.479052897247655e-24
-0.49451756428125293	1.5071963424296246e-24
-0.49445652912500293	1.5307323130548627e-24
-0.49439549396875293	1.5495919132787082e-24
-0.49433445881250293	1.5637203134384776e-24
-0.49427342365625293	1.5730769587043277e-24
-0.49421238850000293	1.5776358129073668e-24
-0.49415135334375293	1.5773853972253377e-24
-0.49409031818750293	1.5723286915222707e-24
-0.49402928303125293	1.562483351803485e-24
-0.49396824787500293	1.5478815351680045e-24
-0.49390721271875293	1.5285697572310427e-24
-0.49384617756250293	1.504608937616501e-24
-0.49378514240625293	1.4760740172735447e-24
-0.49372410725000293	1.4430538626557483e-24
-0.49366307209375293	1.4056510035170355e-24
-0.49360203693750293	1.3639811971390177e-24
-0.49354100178125293	1.3181732885973656e-24
-0.49347996662500293	1.268368632901382e-24
-0.49341893146875293	1.2147207575138936e-24
-0.49335789631250293	1.157394962864601e-24
-0.49329686115625293	1.0965676406293792e-24
-0.49323582600000293	1.0324259531715636e-24
-0.49317479084375293	9.651671651203632e-25
-0.49311375568750293	8.949979768555049e-25
-0.49305272053125293	8.22134061814948e-25
-0.49299168537500293	7.467993329590332e-25
-0.49293065021875293	6.692251806773044e-25
-0.49286961506250293	5.896499967940504e-25
-0.49280857990625293	5.083181855189675e-25
-0.49274754475000293	4.254795810577215e-25
-0.49268650959375293	3.4138883241916845e-25
-0.49262547443750293	2.563040758515292e-25
-0.49256443928125293	1.7048695670587092e-25
-0.49250340412500293	8.420127623119148e-26
-0.49244236896875293	-2.2880090097461494e-27
-0.49238133381250293	-8.871459352642269e-26
-0.49232029865625293	-1.7481284228633136e-25
-0.49225926350000293	-2.603179531633825e-25
-0.49219822834375293	-3.4496654088050716e-25
-0.49213719318750293	-4.284981977149576e-25
-0.49207615803125293	-5.106555623883599e-25
-0.49201512287500293	-5.911854337994609e-25
-0.49195408771875293	-6.698395651078917e-25
-0.49189305256250293	-7.463753602241477e-25
-0.49183201740625293	-8.205565545924111e-25
-0.49177098225000293	-8.921539728932478e-25
-0.49170994709375293	-9.609463777932962e-25
-0.49164891193750293	-1.0267208790580945e-24
-0.49158787678125293	-1.0892738173229888e-24
-0.49152684162500293	-1.1484112527988097e-24
-0.49146580646875293	-1.2039496894048733e-24
-0.49140477131250293	-1.255716421713936e-24
-0.49134373615625293	-1.3035502476986377e-24
-0.49128270100000293	-1.347302154621033e-24
-0.49122166584375293	-1.3868350686848244e-24
-0.49116063068750293	-1.4220251908354614e-24
-0.49109959553125293	-1.4527618505026954e-24
-0.49103856037500293	-1.4789476379503469e-24
-0.49097752521875293	-1.5004995028851417e-24
-0.49091649006250293	-1.5173481681627984e-24
-0.49085545490625293	-1.5294387821824043e-24
-0.49079441975000293	-1.5367311707793123e-24
-0.49073338459375293	-1.5391996137400737e-24
-0.49067234943750293	-1.536833252655541e-24
-0.49061131428125293	-1.5296359898485834e-24
-0.49055027912500293	-1.51762650203973e-24
-0.49048924396875293	-1.500838174509455e-24
-0.49042820881250293	-1.4793190906984384e-24
-0.49036717365625293	-1.4531317787558485e-24
-0.49030613850000293	-1.422353058482025e-24
-0.49024510334375293	-1.387074001053194e-24
-0.49018406818750293	-1.3473992345542754e-24
-0.49012303303125293	-1.3034471182751242e-24
-0.49006199787500293	-1.2553491590130865e-24
-0.49000096271875293	-1.2032493607579764e-24
-0.48993992756250293	-1.1473044840550033e-24
-0.48987889240625293	-1.0876828048061744e-24
-0.48981785725000293	-1.0245640175683328e-24
-0.48975682209375293	-9.581388356864561e-25
-0.48969578693750293	-8.8860788006005e-25
-0.48963475178125293	-8.161817137473895e-25
-0.48957371662500293	-7.41079675114643e-25
-0.48951268146875293	-6.635294826335838e-25
-0.48945164631250293	-5.837666448949163e-25
-0.48939061115625293	-5.020333210136762e-25
-0.48932957600000293	-4.1857808378001405e-25
-0.48926854084375293	-3.336548936266315e-25
-0.48920750568750293	-2.47522263216267e-25
-0.48914647053125293	-1.6044272077576912e-25
-0.48908543537500293	-7.268182072258048e-26
-0.48902440021875293	1.54926854359063e-26
-0.48896336506250293	1.0381142436864146e-25
-0.48890232990625293	1.9200458443264889e-25
-0.48884129475000293	2.798024035261655e-25
-0.48878025959375293	3.669361815639554e-25
-0.48871922443750293	4.5313921521677395e-25
-0.48865818928125293	5.381469704886367e-25
-0.48859715412500293	6.216989978607024e-25
-0.48853611896875293	7.035388026969771e-25
-0.48847508381250293	7.8341464007504e-25
-0.48841404865625293	8.610812821341134e-25
-0.48835301350000293	9.36299422732308e-25
-0.48829197834375293	1.0088372960546758e-24
-0.48823094318750293	1.0784713532884716e-24
-0.48816990803125293	1.1449863565533487e-24
-0.48810887287500293	1.208176731374826e-24
-0.48804783771875293	1.2678467974212958e-24
-0.48798680256250293	1.32381145591928e-24
-0.48792576740625293	1.375896844219114e-24
-0.48786473225000293	1.4239407604610569e-24
-0.48780369709375293	1.4677932304448326e-24
-0.48774266193750293	1.5073169699098223e-24
-0.48768162678125293	1.5423877876917866e-24
-0.48762059162500293	1.57289502195114e-24
-0.48755955646875293	1.5987418019579743e-24
-0.48749852131250293	1.6198453983161915e-24
-0.48743748615625293	1.6361375798002056e-24
-0.48737645100000293	1.6475646235265685e-24
-0.48731541584375293	1.6540876475268838e-24
-0.48725438068750293	1.6556827220575705e-24
-0.48719334553125293	1.6523408755718049e-24
-0.48713231037500293	1.6440682079026256e-24
-0.48707127521875293	1.6308858383970742e-24
-0.48701024006250293	1.6128298619565705e-24
-0.48694920490625293	1.5899512604572532e-24
-0.48688816975000293	1.562315723736267e-24
-0.48682713459375293	1.530003480057107e-24
-0.48676609943750293	1.4931090962035562e-24
-0.48670506428125293	1.4517410625609211e-24
-0.48664402912500293	1.4060216862206922e-24
-0.48658299396875293	1.3560865160517876e-24
-0.48652195881250293	1.3020839886009538e-24
-0.48646092365625293	1.2441751949319456e-24
-0.48639988850000293	1.1825329656017064e-24
-0.48633885334375293	1.1173417798753533e-24
-0.48627781818750293	1.0487970109680092e-24
-0.48621678303125293	9.771042253196723e-25
-0.48615574787500293	9.024788394905331e-25
-0.48609471271875293	8.251451943682605e-25
-0.48603367756250293	7.45336081049463e-25
-0.48597264240625293	6.632918986626809e-25
-0.48591160725000293	5.79259894720263e-25
-0.48585057209375293	4.9349372836936285e-25
-0.48578953693750293	4.0625217185444616e-25
-0.48572850178125293	3.17798660277554e-25
-0.48566746662500293	2.2840076313663117e-25
-0.48560643146875293	1.3832845776043903e-25
-0.48554539631250293	4.7854388684891763e-26
-0.48548436115625293	-4.2747541478383103e-26
-0.48542332600000293	-1.3320344688962216e-25
-0.48536229084375293	-2.2323896042059578e-25
-0.48530125568750293	-3.125815005824852e-25
-0.48524022053125293	-4.009604558610086e-25
-0.48517918537500293	-4.881076994838348e-25
-0.48511815021875293	-5.737592005923978e-25
-0.48505711506250293	-6.576551317422547e-25
-0.48499607990625293	-7.395411263511221e-25
-0.48493504475000293	-8.191686448651168e-25
-0.48487400959375293	-8.962962315007e-25
-0.48481297443750293	-9.70689969579869e-25
-0.48475193928125293	-1.0421238508279105e-24
-0.48469090412500293	-1.1103814406723906e-24
-0.48462986896875293	-1.175255577731908e-24
-0.48456883381250293	-1.2365493365780493e-24
-0.48450779865625293	-1.2940770097861351e-24
-0.48444676350000293	-1.3476641017754283e-24
-0.48438572834375293	-1.3971481301904392e-24
-0.48432469318750293	-1.442379338837692e-24
-0.48426365803125293	-1.4832207635375837e-24
-0.48420262287500293	-1.5195488325339484e-24
-0.48414158771875293	-1.5512539276852508e-24
-0.48408055256250293	-1.5782404184657902e-24
-0.48401951740625293	-1.6004271506818921e-24
-0.48395848225000293	-1.6177476691862875e-24
-0.48389744709375293	-1.6301504301033877e-24
-0.48383641193750293	-1.6375988823747645e-24
-0.48377537678125293	-1.6400717141434281e-24
-0.48371434162500293	-1.6375628912876932e-24
-0.48365330646875293	-1.6300815456828606e-24
-0.48359227131250293	-1.6176521785819136e-24
-0.48353123615625293	-1.6003144249058946e-24
-0.48347020100000293	-1.578122954648804e-24
-0.48340916584375293	-1.5511474436806605e-24
-0.48334813068750293	-1.519472143377794e-24
-0.48328709553125293	-1.4831958361983215e-24
-0.48322606037500293	-1.4424314577273384e-24
-0.48316502521875293	-1.3973056544433992e-24
-0.48310399006250293	-1.3479586007251885e-24
-0.48304295490625293	-1.2945434237414362e-24
-0.48298191975000293	-1.2372257648103344e-24
-0.48292088459375293	-1.1761832964304465e-24
-0.48285984943750293	-1.111605223668174e-24
-0.48279881428125293	-1.0436915726826457e-24
-0.48273777912500293	-9.72652699147997e-25
-0.48267674396875293	-8.987086702906111e-25
-0.48261570881250293	-8.220883890324898e-25
-0.48255467365625293	-7.430291697449533e-25
-0.48249363850000293	-6.617758446307647e-25
-0.48243260334375293	-5.78579942643948e-25
-0.48237156818750293	-4.936991224108816e-25
-0.48231053303125293	-4.0739624224374173e-25
-0.48224949787500293	-3.199385766307917e-25
-0.48218846271875293	-2.315969790132842e-25
-0.48212742756250293	-1.426451471119105e-25
-0.48206639240625293	-5.335860334409667e-26
-0.48200535725000293	3.5985995325711094e-26
-0.48194432209375293	1.2511178839458057e-25
-0.48188328693750293	2.1374258563332815e-25
-0.48182225178125293	3.0160347453395117e-25
-0.48176121662500293	3.8842225730019317e-25
-0.48170018146875293	4.739295850227639e-25
-0.48163914631250293	5.578601362115993e-25
-0.48157811115625293	6.399536965547025e-25
-0.48151707600000293	7.199553563493104e-25
-0.48145604084375293	7.976167838858535e-25
-0.48139500568750293	8.726968341334132e-25
-0.48133397053125293	9.449623043995652e-25
-0.48127293537500293	1.0141886001079324e-24
-0.48121190021875293	1.0801605751257234e-24
-0.48115086506250293	1.1426730163489084e-24
-0.48108982990625293	1.2015314159829531e-24
-0.48102879475000293	1.2565526729979636e-24
-0.48096775959375293	1.3075652384289622e-24
-0.48090672443750293	1.354410218605142e-24
-0.48084568928125293	1.3969415053396057e-24
-0.48078465412500293	1.435026238729132e-24
-0.48072361896875293	1.4685454681075848e-24
-0.48066258381250293	1.4973942363513585e-24
-0.48060154865625293	1.521482097781077e-24
-0.48054051350000293	1.5407333704830625e-24
-0.48047947834375293	1.5550873050112257e-24
-0.48041844318750293	1.5644983445648264e-24
-0.48035740803125293	1.5689363137475674e-24
-0.48029637287500293	1.5683863813891565e-24
-0.48023533771875293	1.5628492319158351e-24
-0.48017430256250293	1.5523410809067622e-24
-0.48011326740625293	1.5368934856221094e-24
-0.48005223225000293	1.516553437612466e-24
-0.47999119709375293	1.4913831286773942e-24
-0.47993016193750293	1.4614597327739897e-24
-0.47986912678125293	1.426875257419451e-24
-0.47980809162500293	1.3877362510073654e-24
-0.47974705646875293	1.3441633930720832e-24
-0.47968602131250293	1.2962912091817588e-24
-0.47962498615625293	1.244267732704716e-24
-0.47956395100000293	1.1882537830155942e-24
-0.47950291584375293	1.1284228396004429e-24
-0.47944188068750293	1.064960217982359e-24
-0.47938084553125293	9.980625907517967e-25
-0.47931981037500293	9.279374796427963e-25
-0.47925877521875293	8.548024711667342e-25
-0.47919774006250293	7.788847069302604e-25
-0.47913670490625293	7.004198667002186e-25
-0.47907566975000293	6.196519937847577e-25
-0.47901463459375293	5.36832160878488e-25
-0.47895359943750293	4.522179550506375e-25
-0.47889256428125293	3.660729029971604e-25
-0.47883152912500293	2.7866513737792665e-25
-0.47877049396875293	1.9026708808296491e-25
-0.47870945881250293	1.0115427005214488e-25
-0.47864842365625293	1.160459589129015e-26
-0.47858738850000293	-7.810245090750033e-26
-0.47852635334375293	-1.6768680378880196e-25
-0.47846531818750293	-2.5686858809104435e-25
-0.47840428303125293	-3.4536904519098524e-25
-0.47834324787500293	-4.329113785340879e-25
-0.47828221271875293	-5.192216212522178e-25
-0.47822117756250293	-6.04029388276953e-25
-0.47816014240625293	-6.870689469705385e-25
-0.47809910725000293	-7.680798706050975e-25
-0.47803807209375293	-8.468077417857369e-25
-0.47797703693750293	-9.230053092820878e-25
-0.47791600178125293	-9.964329662378807e-25
-0.47785496662500293	-1.0668593748540746e-24
-0.47779393146875293	-1.1340627370047018e-24
-0.47773289631250293	-1.197830891566298e-24
-0.47767186115625293	-1.2579622727333903e-24
-0.47761082600000293	-1.3142666329120723e-24
-0.47754979084375293	-1.3665652000339322e-24
-0.47748875568750293	-1.414691956935823e-24
-0.47742772053125293	-1.4584933906571663e-24
-0.47736668537500293	-1.497829486658347e-24
-0.47730565021875293	-1.5325741485919963e-24
-0.47724461506250293	-1.5626151366084723e-24
-0.47718357990625293	-1.5878551518773582e-24
-0.47712254475000293	-1.608211476737966e-24
-0.47706150959375293	-1.6236165840289794e-24
-0.47700047443750293	-1.6340184403058685e-24
-0.47693943928125293	-1.6393802859598948e-24
-0.47687840412500293	-1.6396811688325468e-24
-0.47681736896875293	-1.6349158522261341e-24
-0.47675633381250293	-1.6250947109817117e-24
-0.47669529865625293	-1.6102439748162893e-24
-0.47663426350000293	-1.5904054534869429e-24
-0.47657322834375293	-1.5656364638229761e-24
-0.47651219318750293	-1.536009738820977e-24
-0.47645115803125293	-1.501613080632079e-24
-0.47639012287500293	-1.462549237959443e-24
-0.47632908771875293	-1.4189354314344255e-24
-0.47626805256250293	-1.3709031826271106e-24
-0.47620701740625293	-1.3185977917716775e-24
-0.47614598225000293	-1.2621778372057372e-24
-0.47608494709375293	-1.2018149444430209e-24
-0.47602391193750293	-1.1376929563883489e-24
-0.47596287678125293	-1.0700074786379032e-24
-0.47590184162500293	-9.98965502445971e-25
-0.47584080646875293	-9.247843663214356e-25
-0.47577977131250293	-8.476912563175723e-25
-0.47571873615625293	-7.679228554849823e-25
-0.47565770100000293	-6.857239396062002e-25
-0.47559666584375293	-6.013470452976558e-25
-0.47553563068750293	-5.1505190667537765e-25
-0.47547459553125293	-4.271039863880124e-25
-0.47541356037500293	-3.377741717976703e-25
-0.47535252521875293	-2.473379735490027e-25
-0.47529149006250293	-1.560741965456232e-25
-0.47523045490625293	-6.426453339581401e-26
-0.47516941975000293	2.780743100320099e-26
-0.47510838459375293	1.1985728269512265e-25
-0.47504734943750293	2.116004198923688e-25
-0.47498631428125293	3.027530678265173e-25
-0.47492527912500293	3.9303309803477546e-25
-0.47486424396875293	4.821611368612902e-25
-0.47480320881250293	5.698609127000487e-25
-0.47474217365625293	6.558607374151665e-25
-0.47468113850000293	7.3989406664282855e-25
-0.47462010334375293	8.216999650746365e-25
-0.47455906818750293	9.010248459180726e-25
-0.47449803303125293	9.776222851387274e-25
-0.47443699787500293	1.05125433173434e-24
-0.47437596271875293	1.1216922872560238e-24
-0.47431492756250293	1.188717037339297e-24
-0.47425389240625293	1.2521201383616262e-24
-0.47419285725000293	1.311704280706807e-24
-0.47413182209375293	1.3672839182106762e-24
-0.47407078693750293	1.4186858512019851e-24
-0.47400975178125293	1.4657498353918545e-24
-0.47394871662500293	1.508329067298788e-24
-0.47388768146875293	1.5462905576290304e-24
-0.47382664631250293	1.579515640396053e-24
-0.47376561115625293	1.6079004605505338e-24
-0.47370457600000293	1.631355967874966e-24
-0.47364354084375293	1.6498085321018205e-24
-0.47358250568750293	1.663200134557761e-24
-0.47352147053125293	1.6714882938150533e-24
-0.47346043537500293	1.6746465480903717e-24
-0.47339940021875293	1.6726643628518515e-24
-0.47333836506250293	1.6655471405767628e-24
-0.47327732990625293	1.6533163280779863e-24
-0.47321629475000293	1.6360093251846662e-24
-0.47315525959375293	1.6136792693446303e-24
-0.47309422443750293	1.5863950246931577e-24
-0.47303318928125293	1.5542409371283678e-24
-0.47297215412500293	1.517316445941529e-24
-0.47291111896875293	1.475735995021478e-24
-0.47285008381250293	1.4296285467474102e-24
-0.47278904865625293	1.3791371570844327e-24
-0.47272801350000293	1.3244186647537044e-24
-0.47266697834375293	1.2656431337792806e-24
-0.47260594318750293	1.202993266238845e-24
-0.47254490803125293	1.1366639348356203e-24
-0.47248387287500293	1.0668616395028778e-24
-0.47242283771875293	9.938035862044507e-25
-0.47236180256250293	9.177173496470869e-25
