Time	Frequency
-0.5000563652812531	-1.4873222045122009e-24
-0.4999953301250031	-1.5157042381238403e-24
-0.4999342949687531	-1.5395842224161248e-24
-0.4998732598125031	-1.5588908461782498e-24
-0.4998122246562531	-1.5735665260073852e-24
-0.4997511895000031	-1.5835672139019692e-24
-0.4996901543437531	-1.5888624105267109e-24
-0.4996291191875031	-1.5894357428410621e-24
-0.4995680840312531	-1.5852845120685117e-24
-0.4995070488750031	-1.5764199917148436e-24
-0.4994460137187531	-1.562867391053544e-24
-0.4993849785625031	-1.5446656204626765e-24
-0.4993239434062531	-1.5218673882477171e-24
-0.4992629082500031	-1.4945389153459377e-24
-0.4992018730937531	-1.4627597659400482e-24
-0.4991408379375031	-1.4266227217323493e-24
-0.4990798027812531	-1.3862333289814635e-24
-0.4990187676250031	-1.3417097884050724e-24
-0.4989577324687531	-1.2931825213554827e-24
-0.4988966973125031	-1.2407936903202172e-24
-0.4988356621562531	-1.1846970804560056e-24
-0.4987746270000031	-1.1250572802186629e-24
-0.4987135918437531	-1.0620494606344534e-24
-0.4986525566875031	-9.958588841407253e-25
-0.4985915215312531	-9.266800472565972e-25
-0.4985304863750031	-8.547165917857965e-25
-0.4984694512187531	-7.801803180836564e-25
-0.4984084160625031	-7.032905571992384e-25
-0.4983473809062531	-6.242740738954838e-25
-0.4982863457500031	-5.433635857657774e-25
-0.4982253105937531	-4.607976681707056e-25
-0.4981642754375031	-3.7682004940734834e-25
-0.4981032402812531	-2.916782673923794e-25
-0.4980422051250031	-2.0562397622725294e-25
-0.4979811699687531	-1.1891119923637787e-25
-0.4979201348125031	-3.179610238047233e-26
-0.4978590996562531	5.546355263521576e-26
-0.4977980645000031	1.4260997493416992e-25
-0.4977370293437531	2.293851401690039e-25
-0.4976759941875031	3.1553224070451144e-25
-0.4976149590312531	4.007961392385274e-25
-0.4975539238750031	4.849241176309577e-25
-0.4974928887187531	5.676669261012568e-25
-0.4974318535625031	6.487789815547349e-25
-0.4973708184062531	7.280196195493085e-25
-0.4973097832500031	8.0515349584848755e-25
-0.4972487480937531	8.799514094990362e-25
-0.4971877129375031	9.521909122113872e-25
-0.4971266777812531	1.021657018797291e-24
-0.4970656426250031	1.0881429476848833e-24
-0.4970046074687531	1.1514502835852989e-24
-0.4969435723125031	1.2113903503333977e-24
-0.4968825371562531	1.2677839746740115e-24
-0.4968215020000031	1.3204624288666482e-24
-0.4967604668437531	1.369268183693625e-24
-0.4966994316875031	1.4140545107561153e-24
-0.4966383965312531	1.4546869779475968e-24
-0.4965773613750031	1.4910431900948804e-24
-0.4965163262187531	1.5230131413723392e-24
-0.4964552910625031	1.5505000178765999e-24
-0.4963942559062531	1.5734200209329902e-24
-0.4963332207500031	1.5917028331905304e-24
-0.4962721855937531	1.6052918102309165e-24
-0.4962111504375031	1.6141441517996225e-24
-0.4961501152812531	1.61823100278691e-24
-0.4960890801250031	1.6175375869042281e-24
-0.4960280449687531	1.6120632492494919e-24
-0.4959670098125031	1.6018214283773817e-24
-0.4959059746562531	1.5868396809308914e-24
-0.4958449395000031	1.5671595592770552e-24
-0.4957839043437531	1.5428365420773067e-24
-0.4957228691875031	1.5139398135032535e-24
-0.4956618340312531	1.4805521393402614e-24
-0.4956007988750031	1.4427695719437846e-24
-0.4955397637187531	1.4007012104819123e-24
-0.4954787285625031	1.354468856830225e-24
-0.4954176934062531	1.3042066687320964e-24
-0.4953566582500031	1.250060845021654e-24
-0.4952956230937531	1.1921889607891883e-24
-0.4952345879375031	1.1307599238718441e-24
-0.4951735527812531	1.0659530188015416e-24
-0.4951125176250031	9.979576240228228e-25
-0.4950514824687531	9.269729137296588e-25
-0.4949904473125031	8.532064578441033e-25
-0.4949294121562531	7.768746374491679e-25
-0.4948683770000031	6.982014316119437e-25
-0.4948073418437531	6.174173909680845e-25
-0.4947463066875031	5.3476010019544055e-25
-0.4946852715312531	4.504723774757416e-25
-0.4946242363750031	3.648018636103295e-25
-0.4945632012187531	2.7800087163476094e-25
-0.4945021660625031	1.9032470821498337e-25
-0.4944411309062531	1.020315345350155e-25
-0.4943800957500031	1.3381592159824397e-26
-0.4943190605937531	-7.536388592227996e-26
-0.4942580254375031	-1.6394319480090298e-25
-0.4941969902812531	-2.5209503793985146e-25
-0.4941359551250031	-3.395591764485498e-25
-0.4940749199687531	-4.260775028717044e-25
-0.4940138848125031	-5.113943450907599e-25
-0.4939528496562531	-5.952575481833707e-25
-0.4938918145000031	-6.7741941444162535e-25
-0.4938307793437531	-7.5763667748926405e-25
-0.4937697441875031	-8.356721989889577e-25
-0.4937087090312531	-9.112949504917375e-25
-0.4936476738750031	-9.842809175351718e-25
-0.4935866387187531	-1.0544140671609399e-24
-0.4935256035625031	-1.121486293610495e-24
-0.4934645684062531	-1.1852989713321815e-24
-0.4934035332500031	-1.2456625919716527e-24
-0.4933424980937531	-1.3023979907021795e-24
-0.4932814629375031	-1.35533690240596e-24
-0.4932204277812531	-1.4043216348655992e-24
-0.4931593926250031	-1.4492067828760242e-24
-0.4930983574687531	-1.4898587052954698e-24
-0.4930373223125031	-1.5261561717445135e-24
-0.4929762871562531	-1.5579911560897091e-24
-0.4929152520000031	-1.5852683782934463e-24
-0.4928542168437531	-1.6079063785323766e-24
-0.4927931816875031	-1.6258372758369463e-24
-0.4927321465312531	-1.6390070099345114e-24
-0.4926711113750031	-1.6473758693509845e-24
-0.4926100762187531	-1.6509181146894784e-24
-0.4925490410625031	-1.6496224324951315e-24
-0.4924880059062531	-1.6434918507613399e-24
-0.4924269707500031	-1.6325436711242267e-24
-0.4923659355937531	-1.6168095608497083e-24
-0.4923049004375031	-1.596335337365363e-24
-0.4922438652812531	-1.5711809388015477e-24
-0.4921828301250031	-1.5414201855403313e-24
-0.4921217949687531	-1.50714057616829e-24
-0.4920607598125031	-1.4684431303303913e-24
-0.4919997246562531	-1.4254418553904234e-24
-0.4919386895000031	-1.37826377710447e-24
-0.4918776543437531	-1.3270481954129604e-24
-0.4918166191875031	-1.2719464920154267e-24
-0.4917555840312531	-1.2131217541171233e-24
-0.4916945488750031	-1.1507478904795973e-24
-0.4916335137187531	-1.085009804041485e-24
-0.4915724785625031	-1.0161021181034732e-24
-0.4915114434062531	-9.442290682029388e-25
-0.4914504082500031	-8.696038449505081e-25
-0.4913893730937531	-7.924476892406219e-25
-0.4913283379375031	-7.129896539542899e-25
-0.4912673027812531	-6.314655011686392e-25
-0.4912062676250031	-5.481174017364317e-25
-0.4911452324687531	-4.631929114965597e-25
-0.4910841973125031	-3.7694431065591693e-25
-0.4910231621562531	-2.8962810314885074e-25
-0.4909621270000031	-2.0150376892068503e-25
-0.4909010918437531	-1.1283344754970956e-25
-0.4908400566875031	-2.3881078746927054e-26
-0.4907790215312531	6.508878715798836e-26
-0.4907179863750031	1.5381120030455842e-25
-0.4906569512187531	2.4202188446985893e-25
-0.4905959160625031	3.294581809746839e-25
-0.4905348809062531	4.15859495326178e-25
-0.4904738457500031	5.009682065941788e-25
-0.4904128105937531	5.845306487276653e-25
-0.4903517754375031	6.662975663189815e-25
-0.4902907402812531	7.4602487656226275e-25
-0.4902297051250031	8.234747259579404e-25
-0.4901686699687531	8.984158575061394e-25
-0.4901076348125031	9.706242743473068e-25
-0.4900465996562531	1.0398843204135715e-24
-0.4899855645000031	1.1059890240305054e-24
-0.4899245293437531	1.1687404422233928e-24
-0.4898634941875031	1.227951016755838e-24
-0.4898024590312531	1.2834434715127992e-24
-0.4897414238750031	1.3350513599607327e-24
-0.4896803887187531	1.3826203006273975e-24
-0.4896193535625031	1.4260074469797173e-24
-0.4895583184062531	1.4650824765416356e-24
-0.4894972832500031	1.4997281904448297e-24
-0.4894362480937531	1.5298401679134608e-24
-0.4893752129375031	1.5553277547846532e-24
-0.4893141777812531	1.5761140510572373e-24
-0.4892531426250031	1.5921360227749666e-24
-0.4891921074687531	1.6033450431328724e-24
-0.4891310723125031	1.6097067383669426e-24
-0.4890700371562531	1.611201212348366e-24
-0.4890090020000031	1.6078231317063546e-24
-0.4889479668437531	1.599581732069236e-24
-0.4888869316875031	1.5865007615771408e-24
-0.4888258965312531	1.5686184700989772e-24
-0.4887648613750031	1.5459874648899968e-24
-0.4887038262187531	1.518674582193205e-24
-0.4886427910625031	1.4867606735027403e-24
-0.4885817559062531	1.450340372193525e-24
-0.4885207207500031	1.409521905026252e-24
-0.4884596855937531	1.3644265316901839e-24
-0.4883986504375031	1.3151885780682211e-24
-0.4883376152812531	1.2619546045258321e-24
-0.4882765801250031	1.2048832829308837e-24
-0.4882155449687531	1.1441449486676527e-24
-0.4881545098125031	1.0799206356377412e-24
-0.4880934746562531	1.012402360635919e-24
-0.4880324395000031	9.41791643258166e-25
-0.4879714043437531	8.68299522502141e-25
-0.4879103691875031	7.921459787444844e-25
-0.4878493340312531	7.135584853353249e-25
-0.4877882988750031	6.327724956836077e-25
-0.4877272637187531	5.500298156300518e-25
-0.4876662285625031	4.655781724526752e-25
-0.4876051934062531	3.7967082979545884e-25
-0.4875441582500031	2.9256510768248863e-25
-0.4874831230937531	2.045223731207718e-25
-0.4874220879375031	1.1580676279077907e-25
-0.4873610527812531	2.6684399984102373e-26
-0.4873000176250031	-6.257688829668119e-26
-0.4872389824687531	-1.5170909572310803e-25
-0.4871779473125031	-2.4044439467605295e-25
-0.4871169121562531	-3.2851582309275386e-25
-0.4870558770000031	-4.156586409615408e-25
-0.4869948418437531	-5.016104404124471e-25
-0.4869338066875031	-5.861125119659901e-25
-0.4868727715312531	-6.689102634666065e-25
-0.4868117363750031	-7.497540388891111e-25
-0.4867507012187531	-8.284001639439279e-25
-0.4866896660625031	-9.046111170087782e-25
-0.4866286309062531	-9.781568781101166e-25
-0.4865675957500031	-1.0488150696373846e-24
-0.4865065605937531	-1.1163720080918536e-24
-0.4864455254375031	-1.1806232904644855e-24
-0.4863844902812531	-1.2413740490890842e-24
-0.4863234551250031	-1.2984401268693866e-24
-0.4862624199687531	-1.3516482190662728e-24
-0.4862013848125031	-1.4008363945901532e-24
-0.4861403496562531	-1.4458549485636375e-24
-0.4860793145000031	-1.4865664382352118e-24
-0.4860182793437531	-1.522846259946592e-24
-0.4859572441875031	-1.554583239192651e-24
-0.4858962090312531	-1.5816795659391729e-24
-0.4858351738750031	-1.6040514127370531e-24
-0.4857741387187531	-1.6216291150050275e-24
-0.4857131035625031	-1.6343572934685099e-24
-0.4856520684062531	-1.642195137523101e-24
-0.4855910332500031	-1.64511647735556e-24
-0.4855299980937531	-1.6431099236324264e-24
-0.4854689629375031	-1.6361788098835641e-24
-0.4854079277812531	-1.62434131210177e-24
-0.4853468926250031	-1.6076303221446782e-24
-0.4852858574687531	-1.586093357555632e-24
-0.4852248223125031	-1.5597924941124578e-24
-0.4851637871562531	-1.5288040863537279e-24
-0.4851027520000031	-1.49321863859954e-24
-0.4850417168437531	-1.4531404934771918e-24
-0.4849806816875031	-1.4086875148301688e-24
-0.4849196465312531	-1.3599907886071923e-24
-0.4848586113750031	-1.3071941683243628e-24
-0.4847975762187531	-1.2504539536254074e-24
-0.4847365410625031	-1.1899382881555751e-24
-0.4846755059062531	-1.1258267380078078e-24
-0.4846144707500031	-1.0583099222707966e-24
-0.4845534355937531	-9.875884324726667e-25
-0.4844924004375031	-9.138729350565556e-25
-0.4844313652812531	-8.373831148931333e-25
-0.4843703301250031	-7.583467669183239e-25
-0.4843092949687531	-6.769999304364546e-25
-0.4842482598125031	-5.9358546006288745e-25
-0.4841872246562531	-5.083523956121027e-25
-0.4841261895000031	-4.215555807236203e-25
-0.4840651543437531	-3.3345478077728567e-25
-0.4840041191875031	-2.4431328709620536e-25
-0.4839430840312531	-1.543981747825e-25
-0.4838820488750031	-6.397890791349326e-26
-0.4838210137187531	2.6673975191766153e-26
-0.4837599785625031	1.1728820984531308e-25
-0.4836989434062531	2.075922273339734e-25
-0.4836379082500031	2.9731518812111273e-25
-0.4835768730937531	3.861873545724966e-25
-0.4835158379375031	4.739421386285955e-25
-0.4834548027812531	5.603157281909475e-25
-0.4833937676250031	6.45048383670376e-25
-0.4833327324687531	7.278854490978056e-25
-0.4832716973125031	8.085775325084931e-25
-0.4832106621562531	8.868818210839613e-25
-0.4831496270000031	9.625624406204322e-25
-0.4830885918437531	1.0353914031514793e-24
-0.4830275566875031	1.1051491171949186e-24
-0.4829665215312531	1.1716251361798788e-24
-0.4829054863750031	1.234618942095295e-24
-0.4828444512187531	1.293940175982082e-24
-0.4827834160625031	1.3494096645602267e-24
-0.4827223809062531	1.4008596036420818e-24
-0.4826613457500031	1.4481343225771519e-24
-0.4826003105937531	1.4910905476669604e-24
-0.4825392754375031	1.5295980264364572e-24
-0.4824782402812531	1.563539867753973e-24
-0.4824172051250031	1.5928127212713538e-24
-0.4823561699687531	1.6173274853949153e-24
-0.4822951348125031	1.6370091357628967e-24
-0.4822340996562531	1.6517973116865752e-24
-0.4821730645000031	1.6616463170570907e-24
-0.4821120293437531	1.6665252962104265e-24
-0.4820509941875031	1.666418419968918e-24
-0.4819899590312531	1.6613247773320815e-24
-0.4819289238750031	1.6512585899497994e-24
-0.4818678887187531	1.6362489792525456e-24
-0.4818068535625031	1.6163400277109248e-24
-0.4817458184062531	1.5915905935934491e-24
-0.4816847832500031	1.5620741264841984e-24
-0.4816237480937531	1.5278785144028686e-24
-0.4815627129375031	1.489105741549974e-24
-0.4815016777812531	1.4458716796946572e-24
-0.4814406426250031	1.3983056434058303e-24
-0.4813796074687531	1.3465501223084923e-24
-0.4813185723125031	1.2907602626930069e-24
-0.4812575371562531	1.2311034154601665e-24
-0.4811965020000031	1.167758721464705e-24
-0.4811354668437531	1.100916476723661e-24
-0.4810744316875031	1.0307775741418945e-24
-0.4810133965312531	9.575530185816152e-25
-0.4809523613750031	8.814631083622163e-25
-0.4808913262187531	8.027369321489608e-25
-0.4808302910625031	7.21611622270294e-25
-0.4807692559062531	6.383315657565795e-25
-0.4807082207500031	5.531478699244168e-25
-0.4806471855937531	4.663173354049298e-25
-0.4805861504375031	3.781020174152127e-25
-0.4805251152812531	2.8876803524787495e-25
-0.4804640801250031	1.985851236201407e-25
-0.4804030449687531	1.078256504845155e-25
-0.4803420098125031	1.6763841823889425e-26
-0.4802809746562531	-7.432519755442016e-26
-0.4802199395000031	-1.6516602219174543e-25
-0.4801589043437531	-2.5548378085641833e-25
-0.4800978691875031	-3.450055129165022e-25
-0.4800368340312531	-4.334599483720983e-25
-0.4799757988750031	-5.2057954118175785e-25
-0.4799147637187531	-6.061003030242012e-25
-0.4798537285625031	-6.897631475346837e-25
-0.4797926934062531	-7.713145567106205e-25
-0.4797316582500031	-8.505070845399457e-25
-0.4796706230937531	-9.271007397692561e-25
-0.4796095879375031	-1.000862804545721e-24
-0.4795485527812531	-1.0715695894612455e-24
-0.4794875176250031	-1.1390061532829025e-24
-0.4794264824687531	-1.2029675087427523e-24
-0.4793654473125031	-1.2632593504409996e-24
-0.4793044121562531	-1.3196979743963437e-24
-0.4792433770000031	-1.372111730795622e-24
-0.4791823418437531	-1.4203408151552568e-24
-0.4791213066875031	-1.4642381151203492e-24
-0.4790602715312531	-1.5036697540672252e-24
-0.4789992363750031	-1.5385149971645234e-24
-0.4789382012187531	-1.5686673431815926e-24
-0.4788771660625031	-1.5940343007646095e-24
-0.4788161309062531	-1.614537731680793e-24
-0.4787550957500031	-1.630114538600945e-24
-0.4786940605937531	-1.6407162566138078e-24
-0.4786330254375031	-1.64630958566085e-24
-0.4785719902812531	-1.6468764866594585e-24
-0.4785109551250031	-1.6424140400668058e-24
-0.4784499199687531	-1.6329346568040966e-24
-0.4783888848125031	-1.6184659699706917e-24
-0.4783278496562531	-1.5990507461083653e-24
-0.4782668145000031	-1.5747467935854243e-24
-0.4782057793437531	-1.5456267890626713e-24
-0.4781447441875031	-1.5117780359928854e-24
-0.4780837090312531	-1.473302270147669e-24
-0.4780226738750031	-1.4303152420586444e-24
-0.4779616387187531	-1.3829465507479201e-24
-0.4779006035625031	-1.3313390781394626e-24
-0.4778395684062531	-1.2756485993522024e-24
-0.4777785332500031	-1.2160435362623279e-24
-0.4777174980937531	-1.1527039896760726e-24
-0.4776564629375031	-1.085821758316134e-24
-0.4775954277812531	-1.0155993018840313e-24
-0.4775343926250031	-9.422492917536502e-25
-0.4774733574687531	-8.659942831748922e-25
-0.4774123223125031	-7.870652269892444e-25
-0.4773512871562531	-7.057018157915165e-25
-0.4772902520000031	-6.22151015208727e-25
-0.4772292168437531	-5.366663294509553e-25
-0.4771681816875031	-4.4950776117268605e-25
-0.4771071465312531	-3.609399940018749e-25
-0.4770461113750031	-2.712323315868897e-25
-0.4769850762187531	-1.8065779671159268e-25
-0.4769240410625031	-8.949186806853666e-26
-0.4768630059062531	1.987935998612063e-27
-0.4768019707500031	9.350293549073596e-26
-0.4767409355937531	1.8477436231350697e-25
-0.4766799004375031	2.755240403791875e-25
-0.4766188652812531	3.6547514370234997e-25
-0.4765578301250031	4.543534175971702e-25
-0.4764967949687531	5.418875407729141e-25
-0.4764357598125031	6.278101735797227e-25
-0.4763747246562531	7.118589423597755e-25
-0.4763136895000031	7.937769028958337e-25
-0.4762526543437531	8.733135094884167e-25
-0.4761916191875031	9.502255002863966e-25
-0.4761305840312531	1.0242773361639315e-24
-0.4760695488750031	1.0952420940232049e-24
-0.4760085137187531	1.1629024027778083e-24
-0.4759474785625031	1.2270505050748365e-24
-0.4758864434062531	1.2874894585704312e-24
-0.4758254082500031	1.344033581569203e-24
-0.4757643730937531	1.3965088120404076e-24
-0.4757033379375031	1.4447535752128092e-24
-0.4756423027812531	1.4886189966668298e-24
-0.4755812676250031	1.5279695697674975e-24
-0.4755202324687531	1.5626833986430715e-24
-0.4754591973125031	1.592652777014571e-24
-0.4753981621562531	1.6177843366904309e-24
-0.4753371270000031	1.6379993944155528e-24
-0.4752760918437531	1.6532343668382084e-24
-0.4752150566875031	1.6634406083771755e-24
-0.4751540215312531	1.6685849680512622e-24
-0.4750929863750031	1.6686496631713086e-24
-0.4750319512187531	1.6636323220204735e-24
-0.4749709160625031	1.6535461853361822e-24
-0.4749098809062531	1.6384198864450305e-24
-0.4748488457500031	1.61829745508318e-24
-0.4747878105937531	1.5932382098636813e-24
-0.4747267754375031	1.5633165308383082e-24
-0.4746657402812531	1.528621662691867e-24
-0.4746047051250031	1.4892574963165148e-24
-0.4745436699687531	1.4453421633179032e-24
-0.4744826348125031	1.3970077485588049e-24
-0.4744215996562531	1.3443999508159859e-24
-0.4743605645000031	1.2876774240321186e-24
-0.4742995293437531	1.2270116274113578e-24
-0.4742384941875031	1.1625860804712736e-24
-0.4741774590312531	1.0945956911404815e-24
-0.4741164238750031	1.0232466785622885e-24
-0.4740553887187531	9.487552427299834e-25
-0.4739943535625031	8.713475404085472e-25
-0.4739333184062531	7.912586641513516e-25
-0.4738722832500031	7.087318253539585e-25
-0.4738112480937531	6.240181684913247e-25
-0.4737502129375031	5.373752067491198e-25
-0.4736891777812531	4.490667134030126e-25
-0.4736281426250031	3.593616690341393e-25
-0.4735671074687531	2.6853336138181627e-25
-0.4735060723125031	1.768584959950672e-25
-0.4734450371562531	8.461689727754403e-26
-0.4733840020000031	-7.910092502999365e-27
-0.4733229668437531	-1.004403362885299e-25
-0.4732619316875031	-1.9269075053316924e-25
-0.4732008965312531	-2.843799183517673e-25
-0.4731398613750031	-3.7522754818949473e-25
-0.4730788262187531	-4.64955585965482e-25
-0.4730177910625031	-5.53289891796265e-25
-0.4729567559062531	-6.399599166313414e-25
-0.4728957207500031	-7.247002720001217e-25
-0.4728346855937531	-8.072515157811521e-25
-0.4727736504375031	-8.873604603711552e-25
-0.4727126152812531	-9.647815458457e-25
-0.4726515801250031	-1.0392772640780296e-24
-0.4725905449687531	-1.1106188225239939e-24
-0.4725295098125031	-1.1785871270671053e-24
-0.4724684746562531	-1.2429732762166898e-24
-0.4724074395000031	-1.3035792014333505e-24
-0.4723464043437531	-1.36021826876362e-24
-0.4722853691875031	-1.4127161185472375e-24
-0.4722243340312531	-1.4609106563271398e-24
-0.4721632988750031	-1.5046531715127927e-24
-0.4721022637187531	-1.5438084654128355e-24
-0.4720412285625031	-1.5782551075158244e-24
-0.4719801934062531	-1.6078863773078605e-24
-0.4719191582500031	-1.6326099619196472e-24
-0.4718581230937531	-1.6523486536033183e-24
-0.4717970879375031	-1.667040526299923e-24
