Time	Frequency
-0.5000126361562565	0.3814839215577325
-0.49995160100000646	0.38564062760710205
-0.49989056584375646	0.3885085017178817
-0.49982953068750646	0.3900785094666226
-0.49976849553125646	0.3903460195035167
-0.49970746037500646	0.3893107143961974
-0.49964642521875646	0.38697667378227635
-0.49958539006250646	0.3833523353893506
-0.49952435490625646	0.37845045796643306
-0.49946331975000646	0.3722880967529365
-0.49940228459375646	0.36488653214438455
-0.49934124943750646	0.35627122724524346
-0.49928021428125646	0.3464716983625712
-0.49921917912500646	0.33552145918082876
-0.49915814396875646	0.3234579004026395
-0.49909710881250646	0.3103221382436821
-0.49903607365625646	0.29615891260403404
-0.49897503850000646	0.28101641733043375
-0.49891400334375646	0.2649461531737278
-0.49885296818750646	0.24800273631098674
-0.49879193303125646	0.230243721004042
-0.49873089787500646	0.21172944927826232
-0.49866986271875646	0.19252277124447598
-0.49860882756250646	0.1726888722771996
-0.49854779240625646	0.15229512149071825
-0.49848675725000646	0.13141070673607844
-0.49842572209375646	0.11010649383144305
-0.49836468693750646	0.08845482941679103
-0.49830365178125646	0.06652917411996515
-0.49824261662500646	0.044403917613692855
-0.49818158146875646	0.02215421238677817
-0.49812054631250646	-0.00014442564538317247
-0.49805951115625646	-0.022416341388755364
-0.49799847600000646	-0.044585825861003056
-0.49793744084375646	-0.06657764040667145
-0.49787640568750646	-0.08831709536627114
-0.49781537053125646	-0.10973024789988313
-0.49775433537500646	-0.1307444110348145
-0.49769330021875646	-0.15128811964250485
-0.49763226506250646	-0.1712914655393067
-0.49757122990625646	-0.19068647119035437
-0.49751019475000646	-0.2094071076176084
-0.49744915959375646	-0.22738960815589546
-0.49738812443750646	-0.24457276912891382
-0.49732708928125646	-0.26089801659113476
-0.49726605412500646	-0.27630965008835323
-0.49720501896875646	-0.2907551216834665
-0.49714398381250646	-0.3041850873727053
-0.49708294865625646	-0.3165536161534616
-0.49702191350000646	-0.3278184294065827
-0.49696087834375646	-0.3379409022175067
-0.49689984318750646	-0.3468863035989337
-0.49683880803125646	-0.354623898350303
-0.49677777287500646	-0.3611269925669824
-0.49671673771875646	-0.36637310559285446
-0.49665570256250646	-0.37034398912228056
-0.49659466740625646	-0.3730257357745717
-0.49653363225000646	-0.37440877975045195
-0.49647259709375646	-0.3744879695163735
-0.49641156193750646	-0.3732625879634929
-0.49635052678125646	-0.37073631633728527
-0.49628949162500646	-0.36691727539487273
-0.49622845646875646	-0.3618179638598571
-0.49616742131250646	-0.35545523710562427
-0.49610638615625646	-0.347850243103807
-0.49604535100000646	-0.33902835333120873
-0.49598431584375646	-0.32901909381023187
-0.49592328068750646	-0.3178560244116449
-0.49586224553125646	-0.30557663498227977
-0.49580121037500646	-0.29222224248230394
-0.49574017521875646	-0.2778378206918106
-0.49567914006250646	-0.26247185494508085
-0.49561810490625646	-0.24617622907524864
-0.49555706975000646	-0.22900596220525674
-0.49549603459375646	-0.21101909216518647
-0.49543499943750646	-0.19227650109084943
-0.49537396428125646	-0.1728416048870134
-0.49531292912500646	-0.1527802521558856
-0.49525189396875646	-0.13216045587970107
-0.49519085881250646	-0.11105214785838874
-0.49512982365625646	-0.08952697759211796
-0.49506878850000646	-0.06765804700044843
-0.49500775334375646	-0.04551967806033541
-0.49494671818750646	-0.023187155410811837
-0.49488568303125646	-0.000736457153627795
-0.49482464787500646	0.02175596991166825
-0.49476361271875646	0.04421347595190679
-0.49470257756250646	0.0665595232584581
-0.49464154240625646	0.088717843809289
-0.49458050725000646	0.11061278920730741
-0.49451947209375646	0.13216954532547617
-0.49445843693750646	0.15331436970282097
-0.49439740178125646	0.17397492188061475
-0.49433636662500646	0.19408037344511989
-0.49427533146875646	0.21356178080112745
-0.49421429631250646	0.23235229093429763
-0.49415326115625646	0.2503872530125097
-0.49409222600000646	0.2676046109274108
-0.49403119084375646	0.28394503096434526
-0.49397015568750646	0.29935204458344056
-0.49390912053125646	0.31377237833114674
-0.49384808537500646	0.3271560346260104
-0.49378705021875646	0.33945646631865606
-0.49372601506250646	0.35063081041399213
-0.49366497990625646	0.3606399541634488
-0.49360394475000646	0.36944869737032515
-0.49354290959375646	0.37702591785419687
-0.49348187443750646	0.38334460247176966
-0.49342083928125646	0.3883819902983475
-0.49335980412500646	0.3921196651272331
-0.49329876896875646	0.3945435611379992
-0.49323773381250646	0.39564407393723355
-0.49317669865625646	0.3954160695504759
-0.49311566350000646	0.3938588975382417
-0.49305462834375646	0.39097641270051275
-0.49299359318750646	0.3867769579831784
-0.49293255803125646	0.38127333354117504
-0.49287152287500646	0.37448276418147447
-0.49281048771875646	0.3664268453643518
-0.49274945256250646	0.35713145754129927
-0.49268841740625646	0.3466267025907372
-0.49262738225000646	0.33494678740995465
-0.49256634709375646	0.32212992481640745
-0.49250531193750646	0.30821817807891566
-0.49244427678125646	0.2932573746604893
-0.49238324162500646	0.27729689494664894
-0.49232220646875646	0.260389525567643
-0.49226117131250646	0.24259132854287627
-0.49220013615625646	0.22396136058653787
-0.49213910100000646	0.20456158280887493
-0.49207806584375646	0.18445654587029273
-0.49201703068750646	0.1637132623227722
-0.49195599553125646	0.1424009424913676
-0.49189496037500646	0.12059071757071405
-0.49183392521875646	0.09835551721164368
-0.49177289006250646	0.07576968947415576
-0.49171185490625646	0.05290882857882279
-0.49165081975000646	0.029849519095572177
-0.49158978459375646	0.006669049464037694
-0.49152874943750646	-0.016554864523636855
-0.49146771428125646	-0.03974428545811731
-0.49140667912500646	-0.0628213307501137
-0.49134564396875646	-0.08570854291716258
-0.49128460881250646	-0.10832898110839273
-0.49122357365625646	-0.13060655542346847
-0.49116253850000646	-0.1524664287138959
-0.49110150334375646	-0.17383499735505917
-0.49104046818750646	-0.1946402837634164
-0.49097943303125646	-0.21481234345689804
-0.49091839787500646	-0.23428316554979048
-0.49085736271875646	-0.2529871038448374
-0.49079632756250646	-0.27086122478611074
-0.49073529240625646	-0.2878451885572197
-0.49067425725000646	-0.3038817054128789
-0.49061322209375646	-0.3189167600438057
-0.49055218693750646	-0.33289955456911335
-0.49049115178125646	-0.3457829148537973
-0.49043011662500646	-0.3575233795956065
-0.49036908146875646	-0.3680812851212202
-0.49030804631250646	-0.37742099445363575
-0.49024701115625646	-0.38551097765859077
-0.49018597600000646	-0.3923239054390387
-0.49012494084375646	-0.3978367718541384
-0.49006390568750646	-0.4020309857805742
-0.49000287053125646	-0.40489237803077
-0.48994183537500646	-0.40641131302454025
-0.48988080021875646	-0.4065827032072898
-0.48981976506250646	-0.40540600030499363
-0.48975872990625646	-0.4028852488386896
-0.48969769475000646	-0.39902903573697257
-0.48963665959375646	-0.39385047543095564
-0.48957562443750646	-0.38736717420709443
-0.48951458928125646	-0.37960115918160425
-0.48945355412500646	-0.3705788225509863
-0.48939251896875646	-0.36033079981208493
-0.48933148381250646	-0.3488919202793536
-0.48927044865625646	-0.33630105010675554
-0.48920941350000646	-0.3226009362779362
-0.48914837834375646	-0.3078381771354913
-0.48908734318750646	-0.29206290779771993
-0.48902630803125646	-0.2753287296891322
-0.48896527287500646	-0.2576925679796773
-0.48890423771875646	-0.23921433041751028
-0.48884320256250646	-0.21995683916852854
-0.48878216740625646	-0.19998560269563723
-0.48872113225000646	-0.17936851581864163
-0.48866009709375646	-0.15817566847488884
-0.48859906193750646	-0.13647918738683268
-0.48853802678125646	-0.11435286027476493
-0.48847699162500646	-0.09187193950014041
-0.48841595646875646	-0.0691129424745496
-0.48835492131250646	-0.046153313467791654
-0.48829388615625646	-0.023071164062016335
-0.48823285100000646	5.49489789594338e-05
-0.48817181584375646	0.0231462705250997
-0.48811078068750646	0.046124249445947216
-0.48804974553125646	0.06891064813737556
-0.48798871037500646	0.09142785506216787
-0.48792767521875646	0.11359926840686445
-0.48786664006250646	0.13534937377940623
-0.48780560490625646	0.1566040841320977
-0.48774456975000646	0.1772910886623213
-0.48768353459375646	0.1973399257586992
-0.48762249943750646	0.2166823126428434
-0.48756146428125646	0.23525243430928677
-0.48750042912500646	0.25298705666194066
-0.48743939396875646	0.26982581750649376
-0.48737835881250646	0.28571140730240446
-0.48731732365625646	0.30058978423571303
-0.48725628850000646	0.31441033883223046
-0.48719525334375646	0.32712607262305887
-0.48713421818750646	0.3386937863197375
-0.48707318303125646	0.3490741846623286
-0.48701214787500646	0.35823204864377495
-0.48695111271875646	0.366136346541278
-0.48689007756250646	0.37276033075486376
-0.48682904240625646	0.3780816461180532
-0.48676800725000646	0.3820824044035624
-0.48670697209375646	0.38474923225999785
-0.48664593693750646	0.3860733456715201
-0.48658490178125646	0.3860505634333371
-0.48652386662500646	0.3846813182953837
-0.48646283146875646	0.3819706752808769
-0.48640179631250646	0.37792830516207804
-0.48634076115625646	0.3725684513842152
-0.48627972600000646	0.3659098842494592
-0.48621869084375646	0.3579758524023538
-0.48615765568750646	0.3487939752408792
-0.48609662053125646	0.33839617796511007
-0.48603558537500646	0.3268185794487861
-0.48597455021875646	0.3141013410156744
-0.48591351506250646	0.30028857766528555
-0.48585247990625646	0.2854281724403396
-0.48579144475000646	0.269571621392874
-0.48573040959375646	0.2527738699429539
-0.48566937443750646	0.2350931108329288
-0.48560833928125646	0.2165905900811741
-0.48554730412500646	0.19733040935141657
-0.48548626896875646	0.17737931156546072
-0.48542523381250646	0.15680637812867343
-0.48536419865625646	0.1356829188725557
-0.48530316350000646	0.11408217089220787
-0.48524212834375646	0.09207894817323561
-0.48518109318750646	0.06974956444206559
-0.48512005803125646	0.04717149527087976
-0.48505902287500646	0.02442299215883421
-0.48499798771875646	0.001583017666358689
-0.48493695256250646	-0.02126909883851687
-0.48487591740625646	-0.04405409227646879
-0.48481488225000646	-0.06669274516653766
-0.48475384709375646	-0.08910637169719934
-0.48469281193750646	-0.1112170991658271
-0.48463177678125646	-0.13294793165014854
-0.48457074162500646	-0.1542232634219681
-0.48450970646875646	-0.1749689922172824
-0.48444867131250646	-0.19511276639300992
-0.48438763615625646	-0.21458434498389753
-0.48432660100000646	-0.233315744382214
-0.48426556584375646	-0.25124148139809593
-0.48420453068750646	-0.2682988544596828
-0.48414349553125646	-0.2844281322835602
-0.48408246037500646	-0.29957270224307686
-0.48402142521875646	-0.3136793866531562
-0.48396039006250646	-0.32669853797069925
-0.48389935490625646	-0.3385842007866743
-0.48383831975000646	-0.3492943709902748
-0.48377728459375646	-0.3587910291660125
-0.48371624943750646	-0.3670403434029331
-0.48365521428125646	-0.3740127718008016
-0.48359417912500646	-0.37968314359647315
-0.48353314396875646	-0.3840307888746602
-0.48347210881250646	-0.3870395807986391
-0.48341107365625646	-0.38869800509613067
-0.48335003850000646	-0.3889992003684467
-0.48328900334375646	-0.3879409897969702
-0.48322796818750646	-0.38552588388375403
-0.48316693303125646	-0.38176107380382923
-0.48310589787500646	-0.37665842121334003
-0.48304486271875646	-0.3702344102137758
-0.48298382756250646	-0.3625100851715542
-0.48292279240625646	-0.35351100789891177
-0.48286175725000646	-0.34326714507845785
-0.48280072209375646	-0.33181277081243515
-0.48273968693750646	-0.3191863838094629
-0.48267865178125646	-0.3054305209814113
-0.48261761662500646	-0.2905916566889135
-0.48255658146875646	-0.2747200548345658
-0.48249554631250646	-0.25786952782355804
-0.48243451115625646	-0.2400973416989899
-0.48237347600000646	-0.22146398262443406
-0.48231244084375646	-0.20203289392363427
-0.48225140568750646	-0.1818703769803771
-0.48219037053125646	-0.1610452880541126
-0.48212933537500646	-0.13962876659628898
-0.48206830021875646	-0.1176941017811743
-0.48200726506250646	-0.0953164001810549
-0.48194622990625646	-0.07257231755922978
-0.48188519475000646	-0.049539855059831266
-0.48182415959375646	-0.026298086247370955
-0.48176312443750646	-0.002926807003430497
-0.48170208928125646	0.020493695302385425
-0.48164105412500646	0.04388278775403084
-0.48158001896875646	0.06716005031311856
-0.48151898381250646	0.09024533046257248
-0.48145794865625646	0.11305898057580527
-0.48139691350000646	0.1355224180672658
-0.48133587834375646	0.15755809137813004
-0.48127484318750646	0.1790898823310787
-0.48121380803125646	0.20004338656804255
-0.48115277287500646	0.2203461445072815
-0.48109173771875646	0.23992786805023175
-0.48103070256250646	0.25872067392057335
-0.48096966740625646	0.2766594599185851
-0.48090863225000646	0.2936819115064884
-0.48084759709375646	0.3097288507771348
-0.48078656193750646	0.3247444900201339
-0.48072552678125646	0.33867647497261844
-0.48066449162500646	0.351476179423948
-0.48060345646875646	0.3630988723099052
-0.48054242131250646	0.3735037948694307
-0.48048138615625646	0.382654394412321
-0.48042035100000646	0.39051841754757677
-0.48035931584375646	0.39706797483047973
-0.48029828068750646	0.4022797418043172
-0.48023724553125646	0.40613495726106014
-0.48017621037500646	0.408619508681615
-0.48011517521875646	0.4097240231163541
-0.48005414006250646	0.40944385242144377
-0.47999310490625646	0.40777911496646446
-0.47993206975000646	0.4047347012824371
-0.47987103459375646	0.40032025646109065
-0.47980999943750646	0.3945501311353483
-0.47974896428125646	0.38744337561071945
-0.47968792912500646	0.37902363010921963
-0.47962689396875646	0.36931907440982303
-0.47956585881250646	0.3583623396922139
-0.47950482365625646	0.34619035421209327
-0.47944378850000646	0.3328442866944823
-0.47938275334375646	0.3183693374222626
-0.47932171818750646	0.30281462830723266
-0.47926068303125646	0.28623302244169313
-0.47919964787500646	0.2686809470012185
-0.47913861271875646	0.2502181877199594
-0.47907757756250646	0.230907694004207
-0.47901654240625646	0.21081538256704585
-0.47895550725000646	0.19000984579838676
-0.47889447209375646	0.16856222451716155
-0.47883343693750646	0.14654583996214035
-0.47877240178125646	0.12403603904756812
-0.47871136662500646	0.10110989977849474
-0.47865033146875646	0.07784591426089132
-0.47858929631250646	0.0543238498292867
-0.47852826115625646	0.030624318915608496
-0.47846722600000646	0.006828611457943927
-0.47840619084375646	-0.01698163315303165
-0.47834515568750646	-0.04072470010346494
-0.47828412053125646	-0.06431906682225844
-0.47822308537500646	-0.0876837402957724
-0.47816205021875646	-0.11073841906044612
-0.47810101506250646	-0.13340392545054952
-0.47803997990625646	-0.1556023717609657
-0.47797894475000646	-0.17725741762080827
-0.47791790959375646	-0.19829466695306983
-0.47785687443750646	-0.21864177536716697
-0.47779583928125646	-0.23822874150057582
-0.47773480412500646	-0.2569882545104777
-0.47767376896875646	-0.27485579202043436
-0.47761273381250646	-0.29176985307395137
-0.47755169865625646	-0.30767234080021516
-0.47749066350000646	-0.32250853152486164
-0.47742962834375646	-0.3362274100271167
-0.47736859318750646	-0.3487818563338454
-0.47730755803125646	-0.3601286878368156
-0.47724652287500646	-0.3702289774497532
-0.47718548771875646	-0.37904802580485875
-0.47712445256250646	-0.38655562404628757
-0.47706341740625646	-0.39272607487466776
-0.47700238225000646	-0.39753826945264414
-0.47694134709375646	-0.4009758768309109
-0.47688031193750646	-0.4030272563296951
-0.47681927678125646	-0.4036855975833496
-0.47675824162500646	-0.4029489243762844
-0.47669720646875646	-0.40082007765627975
-0.47663617131250646	-0.39730673809201794
-0.47657513615625646	-0.39242138505471946
-0.47651410100000646	-0.38618126500169114
-0.47645306584375646	-0.3786083195134046
-0.47639203068750646	-0.3697291262448524
-0.47633099553125646	-0.3595748040432951
-0.47626996037500646	-0.34818089388018875
-0.47620892521875646	-0.33558725694322306
-0.47614789006250646	-0.32183793495836827
-0.47608685490625646	-0.3069809674676535
-0.47602581975000646	-0.29106827961058385
-0.47596478459375646	-0.2741554678413762
-0.47590374943750646	-0.25630158879352494
-0.47584271428125646	-0.23756903806685
-0.47578167912500646	-0.2180232131437618
-0.47572064396875646	-0.19773239439455093
-0.47565960881250646	-0.17676747099289464
-0.47559857365625646	-0.15520164392481683
-0.47553753850000646	-0.13311029255299014
-0.47547650334375646	-0.11057056463014528
-0.47541546818750646	-0.08766122296395183
-0.47535443303125646	-0.06446235726877682
-0.47529339787500646	-0.04105501112442913
-0.47523236271875646	-0.017521028670105545
-0.47517132756250646	0.006057280444407882
-0.47511029240625646	0.029597502027819612
-0.47504925725000646	0.05301728234876714
-0.47498822209375646	0.07623466819627925
-0.47492718693750646	0.09916843488343603
-0.47486615178125646	0.12173828124598488
-0.47480511662500646	0.14386521447520925
-0.47474408146875646	0.1654717119744772
-0.47468304631250646	0.1864820801876525
-0.47462201115625646	0.20682272040108723
-0.47456097600000646	0.22642225782067482
-0.47449994084375646	0.24521200252515643
-0.47443890568750646	0.2631260229082017
-0.47437787053125646	0.28010139723392774
-0.47431683537500646	0.2960785387976281
-0.47425580021875646	0.31100129862508674
-0.47419476506250646	0.3248171712705314
-0.47413372990625646	0.33747755244297495
-0.47407269475000646	0.348937867987206
-0.47401165959375646	0.3591576634918113
-0.47395062443750646	0.3681008914879136
-0.47388958928125646	0.37573591411210644
-0.47382855412500646	0.38203566228870045
-0.47376751896875646	0.38697776405278483
-0.47370648381250646	0.3905445437208237
-0.47364544865625646	0.3927231800376827
-0.47358441350000646	0.39350568109339223
-0.47352337834375646	0.3928889456922396
-0.47346234318750646	0.39087477846074975
-0.47340130803125646	0.3874698745355225
-0.47334027287500646	0.3826858029996465
-0.47327923771875646	0.3765389678907703
-0.47321820256250646	0.3690505638493008
-0.47315716740625646	0.36024647709645174
-0.47309613225000646	0.3501572339076193
-0.47303509709375646	0.33881786452837725
-0.47297406193750646	0.32626779670401407
-0.47291302678125646	0.31255073181973136
-0.47285199162500646	0.29771445466180657
-0.47279095646875646	0.2818107292005646
-0.47272992131250646	0.2648950580021302
-0.47266888615625646	0.24702650353952302
-0.47260785100000646	0.22826757573149337
-0.47254681584375646	0.20868382355746773
-0.47248578068750646	0.18834377629843763
-0.47242474553125646	0.1673187158523262
-0.47236371037500646	0.14568219678619296
-0.47230267521875646	0.12351010648940815
-0.47224164006250646	0.1008802079295008
-0.47218060490625646	0.07787182260792098
-0.47211956975000646	0.05456580078807382
-0.47205853459375646	0.031043918669602582
-0.47199749943750646	0.007388839519335773
-0.47193646428125646	-0.016316234671635267
-0.47187542912500646	-0.03998800325864973
-0.47181439396875646	-0.06354310449233833
-0.47175335881250646	-0.08689861219793542
-0.47169232365625646	-0.10997224991694489
-0.47163128850000646	-0.13268267809126325
-0.47157025334375646	-0.15494977169376406
-0.47150921818750646	-0.17669492167375586
-0.47144818303125646	-0.19784134653799157
-0.47138714787500646	-0.21831426067444273
-0.47132611271875646	-0.2380412213696169
-0.47126507756250646	-0.2569523858335742
-0.47120404240625646	-0.27498071513279876
-0.47114300725000646	-0.29206220324740406
-0.47108197209375646	-0.3081361810156001
-0.47102093693750646	-0.3231454369454721
-0.47095990178125646	-0.33703647190850755
-0.47089886662500646	-0.34975969899852966
-0.47083783146875646	-0.3612695561366558
-0.47077679631250646	-0.37152476481689634
-0.47071576115625646	-0.3804883775555469
-0.47065472600000646	-0.38812797512772557
-0.47059369084375646	-0.39441578309144265
-0.47053265568750646	-0.39932870395617237
-0.47047162053125646	-0.4028484982712126
-0.47041058537500646	-0.4049617868565911
