Time	Frequency
-0.5000065049062528	-1.2023555897348353e-24
-0.49994546975000276	-1.223327572088033e-24
-0.49988443459375276	-1.2396166713697067e-24
-0.49982339943750276	-1.251160602616949e-24
-0.49976236428125276	-1.2579155839845958e-24
-0.49970132912500276	-1.2598563037444302e-24
-0.49964029396875276	-1.2569760775826419e-24
-0.49957925881250276	-1.2492869542222808e-24
-0.49951822365625276	-1.2368195696463646e-24
-0.49945718850000276	-1.2196231174838837e-24
-0.49939615334375276	-1.1977650958993345e-24
-0.49933511818750276	-1.171331139698852e-24
-0.49927408303125276	-1.1404245634658112e-24
-0.49921304787500276	-1.1051661383452785e-24
-0.49915201271875276	-1.0656934692252105e-24
-0.49909097756250276	-1.022160499506792e-24
-0.49902994240625276	-9.747371183135035e-25
-0.49896890725000276	-9.236080843064568e-25
-0.49890787209375276	-8.689727475308975e-25
-0.49884683693750276	-8.11044123509998e-25
-0.49878580178125276	-7.500478238752132e-25
-0.49872476662500276	-6.862216576445955e-25
-0.49866373146875276	-6.198143112984722e-25
-0.49860269631250276	-5.510845002791863e-25
-0.49854166115625276	-4.803001331058656e-25
-0.49848062600000276	-4.077369793592215e-25
-0.49841959084375276	-3.3367787632308196e-25
-0.49835855568750276	-2.584113729347664e-25
-0.49829752053125276	-1.8223083449442449e-25
-0.49823648537500276	-1.0543326625520212e-25
-0.49817545021875276	-2.831783012556602e-26
-0.49811441506250276	4.8814689022825676e-26
-0.49805337990625276	1.2566370298559785e-25
-0.49799234475000276	2.0192965429166646e-25
-0.49793130959375276	2.7731496840587686e-25
-0.49787027443750276	3.515260278726789e-25
-0.49780923928125276	4.242732806644476e-25
-0.49774820412500276	4.952729134380085e-25
-0.49768716896875276	5.64248346421084e-25
-0.49762613381250276	6.309303595660258e-25
-0.49756509865625276	6.950589001741043e-25
-0.49750406350000276	7.563839589441873e-25
-0.49744302834375276	8.146662241180989e-25
-0.49738199318750276	8.696784726880395e-25
-0.49732095803125276	9.212061222739677e-25
-0.49725992287500276	9.690481771410852e-25
-0.49719888771875276	1.013018161613497e-24
-0.49713785256250276	1.0529445901202869e-24
-0.49707681740625276	1.0886718428984843e-24
-0.49701578225000276	1.1200607298600422e-24
-0.49695474709375276	1.1469889703237887e-24
-0.49689371193750276	1.1693517918825019e-24
-0.49683267678125276	1.1870622635617331e-24
-0.49677164162500276	1.200051665074746e-24
-0.49671060646875276	1.2082697430332451e-24
-0.49664957131250276	1.2116849901403135e-24
-0.49658853615625276	1.210284684457484e-24
-0.49652750100000276	1.2040749532809145e-24
-0.49646646584375276	1.1930808646294689e-24
-0.49640543068750276	1.1773461822340329e-24
-0.49634439553125276	1.1569333027549031e-24
-0.49628336037500276	1.1319230324585598e-24
-0.49622232521875276	1.1024141514126759e-24
-0.49616129006250276	1.0685231979806293e-24
-0.49610025490625276	1.0303839450143796e-24
-0.49603921975000276	9.881467956434772e-25
-0.49597818459375276	9.419783677494168e-25
-0.49591714943750276	8.920607769302246e-25
-0.49585611428125276	8.38590836563117e-25
-0.49579507912500276	7.817794084684716e-25
-0.49573404396875276	7.218506521900405e-25
-0.49567300881250276	6.590408745021964e-25
-0.49561197365625276	5.935978722351114e-25
-0.49555093850000276	5.257799639071738e-25
-0.49548990334375276	4.558547058120109e-25
-0.49542886818750276	3.840982017536743e-25
-0.49536783303125276	3.107937688304573e-25
-0.49530679787500276	2.3623092190664536e-25
-0.49524576271875276	1.6070434934922178e-25
-0.49518472756250276	8.451246224308495e-26
-0.49512369240625276	7.956564026463131e-27
-0.49506265725000276	-6.866053331998058e-26
-0.49500162209375276	-1.4503566640769177e-25
-0.49494058693750276	-2.2086642766460367e-25
-0.49487955178125276	-2.95852538851992e-25
-0.49481851662500276	-3.6969667844623825e-25
-0.49475748146875276	-4.421061846351201e-25
-0.49469644631250276	-5.127936666921154e-25
-0.49463541115625276	-5.814782982066736e-25
-0.49457437600000276	-6.478874103711428e-25
-0.49451334084375276	-7.117566671320814e-25
-0.49445230568750276	-7.728317894850472e-25
-0.49439127053125276	-8.30869495037576e-25
-0.49433023537500276	-8.856381218434007e-25
-0.49426920021875276	-9.369187839431899e-25
-0.49420816506250276	-9.845063098986988e-25
-0.49414712990625276	-1.0282098385219878e-24
-0.49408609475000276	-1.067853701242699e-24
-0.49402505959375276	-1.1032782299436702e-24
-0.49396402443750276	-1.1343400139278464e-24
-0.49390298928125276	-1.1609130003464318e-24
-0.49384195412500276	-1.1828886172548675e-24
-0.49378091896875276	-1.200176186880641e-24
-0.49371988381250276	-1.2127036868019184e-24
-0.49365884865625276	-1.2204176002557211e-24
-0.49359781350000276	-1.2232833307799023e-24
-0.49353677834375276	-1.221285426107194e-24
-0.49347574318750276	-1.2144274984537265e-24
-0.49341470803125276	-1.202732295000919e-24
-0.49335367287500276	-1.1862416251671115e-24
-0.49329263771875276	-1.1650161941385975e-24
-0.49323160256250276	-1.139135364823962e-24
-0.49317056740625276	-1.1086968901110549e-24
-0.49310953225000276	-1.0738164972528597e-24
-0.49304849709375276	-1.034627475774406e-24
-0.49298746193750276	-9.912801931535888e-25
-0.49292642678125276	-9.439413830400925e-25
-0.49286539162500276	-8.927937148823938e-25
-0.49280435646875276	-8.380348774246937e-25
-0.49274332131250276	-7.798769092456424e-25
-0.49268228615625276	-7.185454787607047e-25
-0.49262125100000276	-6.542786591208146e-25
-0.49256021584375276	-5.873264928524154e-25
-0.49249918068750276	-5.179496391931506e-25
-0.49243814553125276	-4.464183602805667e-25
-0.49237711037500276	-3.7301187518627196e-25
-0.49231607521875276	-2.9801668824639263e-25
-0.49225504006250276	-2.2172584195092753e-25
-0.49219400490625276	-1.444378480887442e-25
-0.49213296975000276	-6.645502562722354e-26
-0.49207193459375276	1.1917053681925755e-26
-0.49201089943750276	9.037114002337312e-26
-0.49194986428125276	1.6859974419621314e-25
-0.49188882912500276	2.462954675340076e-25
-0.49182779396875276	3.231532727711548e-25
-0.49176675881250276	3.988711524417242e-25
-0.49170572365625276	4.731509180175411e-25
-0.49164468850000276	5.457004576928679e-25
-0.49158365334375276	6.1623380932424245e-25
-0.49152261818750276	6.844727642721673e-25
-0.49146158303125276	7.501481704026891e-25
-0.49140054787500276	8.130004829352654e-25
-0.49133951271875276	8.727812539380232e-25
-0.49127847756250276	9.29253787438633e-25
-0.49121744240625276	9.821943183898772e-25
-0.49115640725000276	1.0313927214178323e-24
-0.49109537209375276	1.0766534112625076e-24
-0.49103433693750276	1.1177962685114128e-24
-0.49097330178125276	1.1546569583177414e-24
-0.49091226662500276	1.1870880879543764e-24
-0.49085123146875276	1.2149594791055923e-24
-0.49079019631250276	1.2381586179274185e-24
-0.49072916115625276	1.2565914734653597e-24
-0.49066812600000276	1.2701825270321073e-24
-0.49060709084375276	1.2788751975047317e-24
-0.49054605568750276	1.2826321625339556e-24
-0.49048502053125276	1.2814353957326527e-24
-0.49042398537500276	1.2752862792135168e-24
-0.49036295021875276	1.2642056507829786e-24
-0.49030191506250276	1.2482336953524026e-24
-0.49024087990625276	1.227429805102611e-24
-0.49017984475000276	1.2018723530986014e-24
-0.49011880959375276	1.1716584100870441e-24
-0.49005777443750276	1.1369033647078226e-24
-0.48999673928125276	1.0977404626355617e-24
-0.48993570412500276	1.054320331559868e-24
-0.48987466896875276	1.0068103389800045e-24
-0.48981363381250276	9.553940215734973e-25
-0.48975259865625276	9.002703030799648e-25
-0.48969156350000276	8.416527162783432e-25
-0.48963052834375276	7.79768645934021e-25
-0.48956949318750276	7.148583925030514e-25
-0.48950845803125276	6.471741931718324e-25
-0.48944742287500276	5.769792718636982e-25
-0.48938638771875276	5.045468915914871e-25
-0.48932535256250276	4.301591072749238e-25
-0.48926431740625276	3.5410581141292283e-25
-0.48920328225000276	2.766835128671328e-25
-0.48914224709375276	1.9819421832680344e-25
-0.48908121193750276	1.1894428503248571e-25
-0.48902017678125276	3.9242992779911357e-26
-0.48895914162500276	-4.059832537470323e-26
-0.48889810646875276	-1.2026775849688677e-25
-0.48883707131250276	-1.9945401261364224e-25
-0.48877603615625276	-2.778475313850517e-25
-0.48871500100000276	-3.5514187217273262e-25
-0.48865396584375276	-4.310347482890115e-25
-0.48859293068750276	-5.05229327434256e-25
-0.48853189553125276	-5.774354134427104e-25
-0.48847086037500276	-6.473705064624105e-25
-0.48840982521875276	-7.147609660716986e-25
-0.48834879006250276	-7.79343229960343e-25
-0.48828775490625276	-8.408645621392286e-25
-0.48822671975000276	-8.990842075407094e-25
-0.48816568459375276	-9.537746232320231e-25
-0.48810464943750276	-1.004721779309783e-24
-0.48804361428125276	-1.0517264574829297e-24
-0.48798257912500276	-1.0946051526156588e-24
-0.48792154396875276	-1.1331902084733827e-24
-0.48786050881250276	-1.1673310964797125e-24
-0.48779947365625276	-1.1968947740619349e-24
-0.48773843850000276	-1.2217660883303594e-24
-0.48767740334375276	-1.2418484995262797e-24
-0.48761636818750276	-1.2570642418021468e-24
-0.48755533303125276	-1.2673548049483942e-24
-0.48749429787500276	-1.27268106452928e-24
-0.48743326271875276	-1.2730234656242576e-24
-0.48737222756250276	-1.2683821482437437e-24
-0.48731119240625276	-1.2587769212650641e-24
-0.48725015725000276	-1.2442471798485935e-24
-0.48718912209375276	-1.2248517762942885e-24
-0.48712808693750276	-1.2006688030846281e-24
-0.48706705178125276	-1.1717952625582486e-24
-0.48700601662500276	-1.1383467071247816e-24
-0.48694498146875276	-1.1004567648643418e-24
-0.48688394631250276	-1.0582767108888173e-24
-0.48682291115625276	-1.0119746844607023e-24
-0.48676187600000276	-9.617352103495814e-25
-0.48670084084375276	-9.077584969110798e-25
-0.48663980568750276	-8.502593122144146e-25
-0.48657877053125276	-7.894666561165913e-25
-0.48651773537500276	-7.256224834377774e-25
-0.48645670021875276	-6.589806790618386e-25
-0.48639566506250276	-5.898066159637733e-25
-0.48633462990625276	-5.183753794876853e-25
-0.48627359475000276	-4.449710749232565e-25
-0.48621255959375276	-3.698858907455837e-25
-0.48615152443750276	-2.934184029891647e-25
-0.48609048928125276	-2.1587282597809627e-25
-0.48602945412500276	-1.3755777680323546e-25
-0.48596841896875276	-5.878473626888108e-26
-0.48590738381250276	2.013285505149123e-26
-0.48584634865625276	9.888082478329585e-26
-0.48578531350000276	1.771459539080623e-25
-0.48572427834375276	2.5461668000416372e-25
-0.48566324318750276	3.3098449485281e-25
-0.48560220803125276	4.0594565091658523e-25
-0.48554117287500276	4.792015064990176e-25
-0.48548013771875276	5.504602172909171e-25
-0.48541910256250276	6.194383417309465e-25
-0.48535806740625276	6.858608616306879e-25
-0.48529703225000276	7.494630999564803e-25
-0.48523599709375276	8.099919161705736e-25
-0.48517496193750276	8.672058043678764e-25
-0.48511392678125276	9.208767855388803e-25
-0.48505289162500276	9.70790967550216e-25
-0.48499185646875276	1.016749177693291e-24
-0.48493082131250276	1.058568172293013e-24
-0.48486978615625276	1.0960810426483175e-24
-0.48480875100000276	1.1291381431868944e-24
-0.48474771584375276	1.157607495305217e-24
-0.48468668068750276	1.1813753186606716e-24
-0.48462564553125276	1.2003467364995304e-24
-0.48456461037500276	1.2144458888665245e-24
-0.48450357521875276	1.2236162885046823e-24
-0.48444254006250276	1.2278212245233004e-24
-0.48438150490625276	1.2270437607452926e-24
-0.48432046975000276	1.221286787289822e-24
-0.48425943459375276	1.2105731745104784e-24
-0.48419839943750276	1.1949455450408891e-24
-0.48413736428125276	1.1744661597487803e-24
-0.48407632912500276	1.1492167205900028e-24
-0.48401529396875276	1.1192979734565929e-24
-0.48395425881250276	1.0848293915425194e-24
-0.48389322365625276	1.0459486414409524e-24
-0.48383218850000276	1.002811124926086e-24
-0.48377115334375276	9.555892411106174e-25
-0.48371011818750276	9.044718374813174e-25
-0.48364908303125276	8.49663458252638e-25
-0.48358804787500276	7.913833098129779e-25
-0.48352701271875276	7.298647735846076e-25
-0.48346597756250276	6.653542161753995e-25
-0.48340494240625276	5.9810995467189705e-25
-0.48334390725000276	5.284015205673242e-25
-0.48328287209375276	4.5650838854274195e-25
-0.48322183693750276	3.8271873433004814e-25
-0.48316080178125276	3.073287080549395e-25
-0.48309976662500276	2.3064087403846025e-25
-0.48303873146875276	1.529629949366747e-25
-0.48297769631250276	7.46072987982082e-26
-0.48291666115625276	-4.1114733117074445e-27
-0.48285562600000276	-8.287678724046238e-26
-0.48279459084375276	-1.613717577555054e-25
-0.48273355568750276	-2.392805192659817e-25
-0.48267252053125276	-3.1628922738696944e-25
-0.48261148537500276	-3.9208764587053693e-25
-0.48255045021875276	-4.6637003123208095e-25
-0.48248941506250276	-5.388367302427275e-25
-0.48242837990625276	-6.09195022906036e-25
-0.48236734475000276	-6.771604694197155e-25
-0.48230630959375276	-7.424582726538905e-25
-0.48224527443750276	-8.048237863003977e-25
-0.48218423928125276	-8.640041900443606e-25
-0.48212320412500276	-9.197592813683302e-25
-0.48206216896875276	-9.718622021352697e-25
-0.48200113381250276	-1.020100807452456e-24
-0.48194009865625276	-1.0642781500325128e-24
-0.48187906350000276	-1.1042134316537712e-24
-0.48181802834375276	-1.1397427789731711e-24
-0.48175699318750276	-1.1707197583268028e-24
-0.48169595803125276	-1.1970161168189959e-24
-0.48163492287500276	-1.2185222355287638e-24
-0.48157388771875276	-1.2351475969428418e-24
-0.48151285256250276	-1.2468211306959188e-24
-0.48145181740625276	-1.2534915642609766e-24
-0.48139078225000276	-1.255127602575429e-24
-0.48132974709375276	-1.251718042743709e-24
-0.48126871193750276	-1.2432718927425374e-24
-0.48120767678125276	-1.2298183258837739e-24
-0.48114664162500276	-1.2114065192247358e-24
-0.48108560646875276	-1.1881055724045955e-24
-0.48102457131250276	-1.1600041496352203e-24
-0.48096353615625276	-1.1272102077872506e-24
-0.48090250100000276	-1.089850531938364e-24
-0.48084146584375276	-1.0480702225622832e-24
-0.48078043068750276	-1.0020322946439876e-24
-0.48071939553125276	-9.519166686433024e-25
-0.48065836037500276	-8.97919928125767e-25
-0.48059732521875276	-8.402542478621822e-25
-0.48053629006250276	-7.791464504063815e-25
-0.48047525490625276	-7.148375790869624e-25
-0.48041421975000276	-6.475813934370111e-25
-0.48035318459375276	-5.776437372488791e-25
-0.48029214943750276	-5.053013494118449e-25
-0.48023111428125276	-4.308406590119821e-25
-0.48017007912500276	-3.545570096557092e-25
-0.48010904396875276	-2.767529802612927e-25
-0.48004800881250276	-1.9773748785192143e-25
-0.47998697365625276	-1.1782471541100776e-25
-0.47992593850000276	-3.733236600782625e-26
-0.47986490334375276	4.341920418157462e-26
-0.47980386818750276	1.2410829895573e-25
-0.47974283303125276	2.0441340606271692e-25
-0.47968179787500276	2.840142448778136e-25
-0.47962076271875276	3.6259313615463213e-25
-0.47955972756250276	4.398362941811521e-25
-0.47949869240625276	5.154350505612342e-25
-0.47943765725000276	5.890871226650357e-25
-0.47937662209375276	6.604977541562845e-25
-0.47931558693750276	7.2938098476178e-25
-0.47925455178125276	7.954608256986409e-25
-0.47919351662500276	8.584721835352818e-25
-0.47913248146875276	9.181621075968048e-25
-0.47907144631250276	9.742908464439001e-25
-0.47901041115625276	1.0266326087489308e-24
-0.47894937600000276	1.074976582632266e-24
-0.47888834084375276	1.119127881259007e-24
-0.47882730568750276	1.1589081992382238e-24
-0.47876627053125276	1.1941565761527028e-24
-0.47870523537500276	1.2247300663811625e-24
-0.47864420021875276	1.2505043052366639e-24
-0.47858316506250276	1.2713740453827227e-24
-0.47852212990625276	1.2872535342154985e-24
-0.47846109475000276	1.298076937143e-24
-0.47840005959375276	1.3037985392328612e-24
-0.47833902443750276	1.304393002528051e-24
-0.47827798928125276	1.2998554659657802e-24
-0.47821695412500276	1.2902015091970757e-24
-0.47815591896875276	1.275467211821094e-24
-0.47809488381250276	1.2557089434462041e-24
-0.47803384865625276	1.231003154164297e-24
-0.47797281350000276	1.2014461027983206e-24
-0.47791177834375276	1.1671535055485909e-24
-0.47785074318750276	1.128260003447948e-24
-0.47778970803125276	1.0849186545377591e-24
-0.47772867287500276	1.0373004982429998e-24
-0.47766763771875276	9.855935525422132e-25
-0.47760660256250276	9.300023201530412e-25
-0.47754556740625276	8.707470469136736e-25
-0.47748453225000276	8.080624592604853e-25
-0.47742349709375276	7.421972712381622e-25
-0.47736246193750276	6.734129647965208e-25
-0.47730142678125276	6.01982743219867e-25
-0.47724039162500276	5.281905110435025e-25
-0.47717935646875276	4.523297148715796e-25
-0.47711832131250276	3.7470227025242486e-25
-0.47705728615625276	2.956169780326332e-25
-0.47699625100000276	2.153889166916384e-25
-0.47693521584375276	1.3433770008441045e-25
-0.47687418068750276	5.278610614541138e-26
-0.47681314553125276	-2.894060520465341e-26
-0.47675211037500276	-1.1051662643130062e-25
-0.47669107521875276	-1.9161663415666288e-25
-0.47663004006250276	-2.719171242542645e-25
-0.47656900490625276	-3.5109761763877604e-25
-0.47650796975000276	-4.288421017604013e-25
-0.47644693459375276	-5.048404468691273e-25
-0.47638589943750276	-5.787890298337729e-25
-0.47632486428125276	-6.503926873803029e-25
-0.47626382912500276	-7.193656289039912e-25
-0.47620279396875276	-7.854322535604612e-25
-0.47614175881250276	-8.483288978398657e-25
-0.47608072365625276	-9.078043488598686e-25
-0.47601968850000276	-9.636211106725453e-25
-0.47595865334375276	-1.01555646559743e-24
-0.47589761818750276	-1.0634029738696303e-24
-0.47583658303125276	-1.1069698435533643e-24
-0.47577554787500276	-1.146083341579716e-24
-0.47571451271875276	-1.1805874427978347e-24
-0.47565347756250276	-1.2103448715423884e-24
-0.47559244240625276	-1.2352372771418984e-24
-0.47553140725000276	-1.25516578986263e-24
-0.47547037209375276	-1.27005159485738e-24
-0.47540933693750276	-1.2798361035295439e-24
-0.47534830178125276	-1.2844812084455806e-24
-0.47528726662500276	-1.2839695008328342e-24
-0.47522623146875276	-1.2783043318351765e-24
-0.47516519631250276	-1.267509774440686e-24
-0.47510416115625276	-1.2516305722787124e-24
-0.47504312600000276	-1.2307319285263498e-24
-0.47498209084375276	-1.2048993042194552e-24
-0.47492105568750276	-1.1742380466269058e-24
-0.47486002053125276	-1.1388729185414515e-24
-0.47479898537500276	-1.0989477542363885e-24
-0.47473795021875276	-1.0546247353724049e-24
-0.47467691506250276	-1.0060837744943133e-24
-0.47461587990625276	-9.535218820272497e-25
-0.47455484475000276	-8.971523224479875e-25
-0.47449380959375276	-8.372036505860886e-25
-0.47443277443750276	-7.7391902096178005e-25
-0.47437173928125276	-7.07555075160159e-25
-0.47431070412500276	-6.383807611995742e-25
-0.47424966896875276	-5.666767496922814e-25
-0.47418863381250276	-4.92733646974931e-25
-0.47412759865625276	-4.168511816314819e-25
-0.47406656350000276	-3.393373374369486e-25
-0.47400552834375276	-2.6050625405199784e-25
-0.47394449318750276	-1.806776021406761e-25
-0.47388345803125276	-1.0017544449704378e-25
-0.47382242287500276	-1.9326247549803668e-26
-0.47376138771875276	6.154209482621425e-26
-0.47370035256250276	1.421011125886723e-25
-0.47363931740625276	2.2202390836789135e-25
-0.47357828225000276	3.0098618425350866e-25
-0.47351724709375276	3.7866699813391496e-25
-0.47345621193750276	4.547509662969639e-25
-0.47339517678125276	5.289290152797959e-25
-0.47333414162500276	6.008995750197602e-25
-0.47327310646875276	6.703701206109709e-25
-0.47321207131250276	7.3705814186884805e-25
-0.47315103615625276	8.00692345361924e-25
-0.47309000100000276	8.610137114288611e-25
-0.47302896584375276	9.177767141365573e-25
-0.47296793068750276	9.707500931327535e-25
-0.47290689553125276	1.0197178913122505e-24
-0.47284586037500276	1.0644804873801107e-24
-0.47278482521875276	1.1048551549603538e-24
-0.47272379006250276	1.140676892048061e-24
-0.47266275490625276	1.1717992976121312e-24
-0.47260171975000276	1.1980948920683608e-24
-0.47254068459375276	1.2194557139443198e-24
-0.47247964943750276	1.2357939553825668e-24
-0.47241861428125276	1.247042100090702e-24
-0.47235757912500276	1.2531532700869212e-24
-0.47229654396875276	1.2541014857708253e-24
