Time	Frequency
-0.5000403344999995	1.5766562577573568e-24
-0.4999792993437495	1.545258178249622e-24
-0.4999182641874995	1.5094729652712293e-24
-0.4998572290312495	1.4693976655934418e-24
-0.4997961938749995	1.4251415078311661e-24
-0.4997351587187495	1.3768255691659186e-24
-0.4996741235624995	1.324582552798854e-24
-0.4996130884062495	1.2685561880632166e-24
-0.4995520532499995	1.2089011549919497e-24
-0.4994910180937495	1.1457823303976924e-24
-0.4994299829374995	1.0793745385129372e-24
-0.4993689477812495	1.0098620671495404e-24
-0.4993079126249995	9.374378768426477e-25
-0.4992468774687495	8.623035287964322e-25
-0.4991858423124995	7.846682225577367e-25
-0.4991248071562495	7.047482414805967e-25
-0.4990637719999995	6.227667061293707e-25
-0.4990027368437495	5.389524798840768e-25
-0.4989417016874995	4.535397246245776e-25
-0.4988806665312495	3.6676760443374854e-25
-0.4988196313749995	2.78878612013582e-25
-0.4987585962187495	1.9011915586890104e-25
-0.4986975610624995	1.0073809769798626e-25
-0.4986365259062495	1.0985673708972068e-26
-0.4985754907499995	-7.88858085369724e-26
-0.4985144555937495	-1.6862425792729875e-25
-0.4984534204374995	-2.5797766369793124e-25
-0.4983923852812495	-3.4669469637560787e-25
-0.4983313501249995	-4.345259152612262e-25
-0.4982703149687495	-5.212243497801115e-25
-0.4982092798124995	-6.065459225568232e-25
-0.4981482446562495	-6.9025016152206485e-25
-0.4980872094999995	-7.721015117246658e-25
-0.4980261743437495	-8.518690715513348e-25
-0.4979651391874995	-9.293279026226915e-25
-0.4979041040312495	-1.0042595297251806e-24
-0.4978430688749995	-1.0764523329319892e-24
-0.4977820337187495	-1.1457025502590618e-24
-0.4977209985624995	-1.2118142996414334e-24
-0.4976599634062495	-1.2746009087361235e-24
-0.4975989282499995	-1.3338846833746793e-24
-0.4975378930937495	-1.3894976555144578e-24
-0.4974768579374995	-1.4412826688310658e-24
-0.4974158227812495	-1.4890926768521463e-24
-0.4973547876249995	-1.5327921919051709e-24
-0.4972937524687495	-1.5722572317350748e-24
-0.4972327173124995	-1.6073755192371433e-24
-0.4971716821562495	-1.6380473187444388e-24
-0.4971106469999995	-1.664185127938752e-24
-0.4970496118437495	-1.685714414533316e-24
-0.4969885766874995	-1.7025735517844904e-24
-0.4969275415312495	-1.714714087031628e-24
-0.4968665063749995	-1.7221009593738234e-24
-0.4968054712187495	-1.724712414398436e-24
-0.4967444360624995	-1.722540276040621e-24
-0.4966834009062495	-1.7155898647541302e-24
-0.4966223657499995	-1.70387999539742e-24
-0.4965613305937495	-1.68744296305802e-24
-0.4965002954374995	-1.6663244374576675e-24
-0.4964392602812495	-1.6405833343584004e-24
-0.4963782251249995	-1.610291678740506e-24
-0.4963171899687495	-1.5755343546717787e-24
-0.4962561548124995	-1.5364089667237543e-24
-0.4961951196562495	-1.4930254396058036e-24
-0.4961340844999995	-1.4455058245108094e-24
-0.4960730493437495	-1.393983874266528e-24
-0.4960120141874995	-1.338604740575335e-24
-0.4959509790312495	-1.2795245612197075e-24
-0.4958899438749995	-1.2169098344438926e-24
-0.4958289087187495	-1.1509373893605988e-24
-0.4957678735624995	-1.0817932902782817e-24
-0.4957068384062495	-1.00967283760923e-24
-0.4956458032499995	-9.347798374173586e-25
-0.4955847680937495	-8.57325713283212e-25
-0.4955237329374995	-7.775295880447815e-25
-0.4954626977812495	-6.956169831083403e-25
-0.4954016626249995	-6.118195016495425e-25
-0.4953406274687495	-5.263742651941898e-25
-0.4952795923124995	-4.395230287011797e-25
-0.4952185571562495	-3.5151146164210935e-25
-0.4951575219999995	-2.6258885632273504e-25
-0.4950964868437495	-1.7300692263322583e-25
-0.4950354516874995	-8.301911749031364e-26
-0.4949744165312495	7.119354566612201e-27
-0.4949133813749995	9.715343455711208e-26
-0.4948523462187495	1.8682808187021124e-25
-0.4947913110624995	2.7588894244387274e-25
-0.4947302759062495	3.6408398605399617e-25
-0.4946692407499995	4.511631414167062e-25
-0.4946082055937495	5.368794559220868e-25
-0.4945471704374995	6.209902925436066e-25
-0.4944861352812495	7.032570284065167e-25
-0.4944251001249995	7.834464437822408e-25
-0.4943640649687495	8.613314617470443e-25
-0.4943030298124995	9.366910336833896e-25
-0.4942419946562495	1.0093117454208153e-24
-0.4941809594999995	1.0789877241368306e-24
-0.4941199243437495	1.1455214561828897e-24
-0.4940588891874995	1.208724532254871e-24
-0.4939978540312495	1.2684177244643714e-24
-0.4939368188749995	1.324432158259576e-24
-0.4938757837187495	1.3766091329041313e-24
-0.4938147485624995	1.4248010319617126e-24
-0.4937537134062495	1.468871555505283e-24
-0.4936926782499995	1.5086961039593034e-24
-0.4936316430937495	1.5441623187836735e-24
-0.4935706079374995	1.5751700950378697e-24
-0.4935095727812495	1.6016322159289079e-24
-0.4934485376249995	1.62347434338803e-24
-0.4933875024687495	1.640635345642027e-24
-0.4933264673124995	1.653067505979272e-24
-0.4932654321562495	1.6607365864749716e-24
-0.4932043969999995	1.6636219753161615e-24
-0.4931433618437495	1.6617167476443835e-24
-0.4930823266874995	1.655027672716799e-24
-0.4930212915312495	1.6435752184918366e-24
-0.4929602563749995	1.6273935043028987e-24
-0.4928992212187495	1.6065301600208337e-24
-0.4928381860624995	1.5810462613538294e-24
-0.4927771509062495	1.551016133338203e-24
-0.4927161157499995	1.5165270790430673e-24
-0.4926550805937495	1.4776792785314904e-24
-0.4925940454374995	1.4345853646073296e-24
-0.4925330102812495	1.3873701440787058e-24
-0.4924719751249995	1.3361703671065642e-24
-0.4924109399687495	1.281134074341559e-24
-0.4923499048124995	1.2224204992606651e-24
-0.4922888696562495	1.1601993558914436e-24
-0.4922278344999995	1.0946504296092196e-24
-0.4921667993437495	1.0259633277846893e-24
-0.4921057641874995	9.543362634133232e-25
-0.4920447290312495	8.799763984133987e-25
-0.4919836938749995	8.030985759980189e-25
-0.4919226587187495	7.2392473159504685e-25
-0.4918616235624995	6.4268395546755e-25
-0.4918005884062495	5.596107250177866e-25
-0.4917395532499995	4.749452917311148e-25
-0.4916785180937495	3.889324094566204e-25
-0.4916174829374995	3.0182061578971688e-25
-0.4915564477812495	2.138619310602062e-25
-0.4914954126249995	1.2531061452628672e-25
-0.4914343774687495	3.64230051795439e-26
-0.4913733423124995	-5.25438609568614e-26
-0.4913123071562495	-1.413324299386402e-25
-0.4912512719999995	-2.296854785412394e-25
-0.4911902368437495	-3.1734740250392057e-25
-0.4911292016874995	-4.040640103412187e-25
-0.4910681665312495	-4.895839324672702e-25
-0.4910071313749995	-5.736594006852827e-25
-0.4909460962187495	-6.560463532633413e-25
-0.4908850610624995	-7.365056972696046e-25
-0.4908240259062495	-8.148038588096173e-25
-0.4907629907499995	-8.90713281817756e-25
-0.4907019555937495	-9.640132174580376e-25
-0.4906409204374995	-1.0344905429132307e-24
-0.4905798852812495	-1.101939950552045e-24
-0.4905188501249995	-1.1661648469970153e-24
-0.4904578149687495	-1.2269780645439285e-24
-0.4903967798124995	-1.2842018443268873e-24
-0.4903357446562495	-1.3376689443483738e-24
-0.4902747094999995	-1.3872228921133942e-24
-0.4902136743437495	-1.432718288727115e-24
-0.4901526391874995	-1.4740214481243584e-24
-0.4900916040312495	-1.5110108160841038e-24
-0.4900305688749995	-1.543577056973393e-24
-0.4899695337187495	-1.5716236093705887e-24
-0.4899084985624995	-1.5950670271682271e-24
-0.4898474634062495	-1.6138368627545344e-24
-0.4897864282499995	-1.6278763417092573e-24
-0.4897253930937495	-1.6371422236247723e-24
-0.4896643579374995	-1.6416049462917862e-24
-0.4896033227812495	-1.6412489509226042e-24
-0.4895422876249995	-1.6360724573540425e-24
-0.4894812524687495	-1.626087616207979e-24
-0.4894202173124995	-1.6113204989033774e-24
-0.4893591821562495	-1.5918109694969748e-24
-0.4892981469999995	-1.5676125793183909e-24
-0.4892371118437495	-1.5387924790297084e-24
-0.4891760766874995	-1.5054311960520355e-24
-0.4891150415312495	-1.467622344621539e-24
-0.4890540063749995	-1.4254725278382177e-24
-0.4889929712187495	-1.379100883560065e-24
-0.4889319360624995	-1.3286387646796838e-24
-0.4888709009062495	-1.2742294991532052e-24
-0.4888098657499995	-1.2160278609126e-24
-0.4887488305937495	-1.1541995834000355e-24
-0.4886877954374995	-1.0889210726427106e-24
-0.4886267602812495	-1.0203787941394397e-24
-0.4885657251249995	-9.48768640719082e-25
-0.4885046899687495	-8.742955898238202e-25
-0.4884436548124995	-7.971729910728967e-25
-0.4883826196562495	-7.176219384674743e-25
-0.4883215844999995	-6.358706699029746e-25
-0.4882605493437495	-5.521539981249873e-25
-0.4881995141874995	-4.6671246219787155e-25
-0.4881384790312495	-3.7979176792633435e-25
-0.4880774438749995	-2.9164211048566175e-25
-0.4880164087187495	-2.0251724749482753e-25
-0.4879553735624995	-1.1267414295875842e-25
-0.4878943384062495	-2.2371730633541265e-26
-0.4878333032499995	6.812935230836741e-26
-0.4877722680937495	1.5856769036472807e-25
-0.4877112329374995	2.4868223834834515e-25
-0.4876501977812495	3.3821211414614728e-25
-0.4875891626249995	4.268984643629116e-25
-0.4875281274687495	5.144845744657551e-25
-0.4874670923124995	6.007163831933103e-25
-0.4874060571562495	6.853441075301921e-25
-0.4873450219999995	7.681220569126721e-25
-0.4872839868437495	8.488096969225541e-25
-0.4872229516874995	9.271726019816697e-25
-0.4871619165312495	1.0029827271314037e-24
-0.4871008813749995	1.0760191234545716e-24
-0.4870398462187495	1.1460689500860523e-24
-0.4869788110624995	1.2129276793735691e-24
-0.4869177759062495	1.2763997457549099e-24
-0.4868567407499995	1.3362994496364813e-24
-0.4867957055937495	1.3924511097969734e-24
-0.4867346704374995	1.4446896907923705e-24
-0.4866736352812495	1.4928614597908721e-24
-0.4866126001249995	1.5368242182897323e-24
-0.4865515649687495	1.5764477148387563e-24
-0.4864905298124995	1.6116143544146916e-24
-0.4864294946562495	1.6422190813672722e-24
-0.4863684594999995	1.6681699341773062e-24
-0.4863074243437495	1.6893885138906585e-24
-0.4862463891874995	1.705809687687467e-24
-0.4861853540312495	1.7173823194140413e-24
-0.4861243188749995	1.724069209106187e-24
-0.4860632837187495	1.725847025125133e-24
-0.4860022485624995	1.7227067585106962e-24
-0.4859412134062495	1.7146534782248657e-24
-0.4858801782499995	1.7017063668565987e-24
-0.4858191430937495	1.683898800238322e-24
-0.4857581079374995	1.6612781267808003e-24
-0.4856970727812495	1.6339055649886186e-24
-0.4856360376249995	1.6018561166888608e-24
-0.4855750024687495	1.5652182484837462e-24
-0.4855139673124995	1.524093714625781e-24
-0.4854529321562495	1.478597257443998e-24
-0.4853918969999995	1.4288562701565786e-24
-0.4853308618437495	1.3750104212854697e-24
-0.4852698266874995	1.3172113481485725e-24
-0.4852087915312495	1.255622097237952e-24
-0.4851477563749995	1.190416731716154e-24
-0.4850867212187495	1.1217798792459266e-24
-0.4850256860624995	1.0499060765136961e-24
-0.4849646509062495	9.749993899799362e-25
-0.4849036157499995	8.972725526729695e-25
-0.4848425805937495	8.169468203650833e-25
-0.4847815454374995	7.342507334705024e-25
-0.4847205102812495	6.494200010250236e-25
-0.4846594751249995	5.626966128184558e-25
-0.4845984399687495	4.74327854679825e-25
-0.4845374048124995	3.845663260264327e-25
-0.4844763696562495	2.936682903168241e-25
-0.4844153344999995	2.018938384177283e-25
-0.4843542993437495	1.0950536055933124e-25
-0.4842932641874995	1.6767324340067799e-26
-0.4842322290312495	-7.605453255416252e-26
-0.4841711938749995	-1.68694570191504e-25
-0.4841101587187495	-2.6088702244827475e-25
-0.4840491235624995	-3.523675976854294e-25
-0.4839880884062495	-4.428739386083809e-25
-0.4839270532499995	-5.321462087663925e-25
-0.4838660180937495	-6.199281475488363e-25
-0.4838049829374995	-7.059677444929669e-25
-0.4837439477812495	-7.900177144830247e-25
-0.4836829126249995	-8.718365453343577e-25
-0.4836218774687495	-9.511891119659959e-25
-0.4835608423124995	-1.0278470995291397e-24
-0.4834998071562495	-1.1015900998823507e-24
-0.4834387719999995	-1.1722059728053497e-24
-0.4833777368437495	-1.2394913829576931e-24
-0.4833167016874995	-1.30325270716597e-24
-0.4832556665312495	-1.363306343846507e-24
-0.4831946313749995	-1.419479335173911e-24
-0.4831335962187495	-1.471609860839349e-24
-0.4830725610624995	-1.5195477174693213e-24
-0.4830115259062495	-1.5631547718205728e-24
-0.4829504907499995	-1.6023053129844551e-24
-0.4828894555937495	-1.6368865635790157e-24
-0.4828284204374995	-1.6667987277563784e-24
-0.4827673852812495	-1.6919556397744013e-24
-0.4827063501249995	-1.7122848047427528e-24
-0.4826453149687495	-1.7277275241678896e-24
-0.4825842798124995	-1.738239439915931e-24
-0.4825232446562495	-1.7437902476081727e-24
-0.4824622094999995	-1.7443639982582755e-24
-0.4824011743437495	-1.7399592665832086e-24
-0.4823401391874995	-1.730588849145561e-24
-0.4822791040312495	-1.7162799972993472e-24
-0.4822180688749995	-1.6970742965415845e-24
-0.4821570337187495	-1.6730273861024644e-24
-0.4820959985624995	-1.6442090621199372e-24
-0.4820349634062495	-1.6107028665531285e-24
-0.4819739282499995	-1.572605936630467e-24
-0.4819128930937495	-1.5300287939345594e-24
-0.4818518579374995	-1.483094829430319e-24
-0.4817908227812495	-1.4319402518758225e-24
-0.4817297876249995	-1.376713370426885e-24
-0.4816687524687495	-1.3175743724036833e-24
-0.4816077173124995	-1.254694935751173e-24
-0.4815466821562495	-1.1882573851732362e-24
-0.4814856469999995	-1.1184546088595486e-24
-0.4814246118437495	-1.045489228634512e-24
-0.4813635766874995	-9.6957293480692e-25
-0.4813025415312495	-8.909262844966027e-25
-0.4812415063749995	-8.097776274612417e-25
-0.4811804712187495	-7.263625051173935e-25
-0.4811194360624995	-6.40923442556063e-25
-0.4810584009062495	-5.537085258150553e-25
-0.4809973657499995	-4.649711103152296e-25
-0.4809363305937495	-3.749693129754006e-25
-0.4808752954374995	-2.8396448918672683e-25
-0.4808142602812495	-1.9222137124159048e-25
-0.4807532251249995	-1.0000664412949592e-25
-0.4806921899687495	-7.588435472550066e-27
-0.4806311548124995	8.476430099221026e-26
-0.4805701196562495	1.7678318249654744e-25
-0.4805090844999995	2.682001342899029e-25
-0.4804480493437495	3.5874944323961804e-25
-0.4803870141874995	4.4816750341744125e-25
-0.4803259790312495	5.3619380154926405e-25
-0.4802649438749995	6.225724901479491e-25
-0.4802039087187495	7.070516984641085e-25
-0.4801428735624995	7.89385563013049e-25
-0.4800818384062495	8.693343374603478e-25
-0.4800208032499995	9.466649946441734e-25
-0.4799597680937495	1.0211523657663528e-24
-0.4798987329374995	1.0925793693955212e-24
-0.4798376977812495	1.1607378950765137e-24
-0.4797766626249995	1.2254292016537122e-24
-0.4797156274687495	1.2864648786130924e-24
-0.4796545923124995	1.3436669308755813e-24
-0.4795935571562495	1.3968685382240782e-24
-0.4795325219999995	1.4459147716716252e-24
-0.4794714868437495	1.4906624801023765e-24
-0.4794104516874995	1.5309812716830589e-24
-0.4793494165312495	1.566753625399882e-24
-0.4792883813749995	1.5978752040504018e-24
-0.4792273462187495	1.6242553811379214e-24
-0.4791663110624995	1.6458172385502774e-24
-0.4791052759062495	1.662498046088594e-24
-0.4790442407499995	1.6742492753538067e-24
-0.4789832055937495	1.6810368243531966e-24
-0.4789221704374995	1.6828411496622054e-24
-0.4788611352812495	1.679657198902802e-24
-0.4788001001249995	1.671494630344078e-24
-0.4787390649687495	1.658377610010677e-24
-0.4786780298124995	1.6403448318049992e-24
-0.4786169946562495	1.6174494328729594e-24
-0.4785559594999995	1.589758764536793e-24
-0.4784949243437495	1.5573542687308878e-24
-0.4784338891874995	1.520331245168578e-24
-0.4783728540312495	1.4787984941783448e-24
-0.4783118188749995	1.4328781624631623e-24
-0.4782507837187495	1.382705206960931e-24
-0.4781897485624995	1.328427096481275e-24
-0.4781287134062495	1.2702035312824132e-24
-0.4780676782499995	1.208205563559456e-24
-0.4780066430937495	1.1426156515281e-24
-0.4779456079374995	1.0736267348011578e-24
-0.4778845727812495	1.0014416274120011e-24
-0.4778235376249995	9.262729562237356e-25
-0.4777625024687495	8.48341816130218e-25
-0.4777014673124995	7.678776599655545e-25
-0.4776404321562495	6.851175824583993e-25
-0.4775793969999995	6.003050862385803e-25
-0.4775183618437495	5.1369034004225395e-25
-0.4774573266874995	4.255285078526911e-25
-0.4773962915312495	3.360793471957275e-25
-0.4773352563749995	2.456070036788772e-25
-0.4772742212187495	1.5437804513472173e-25
-0.4772131860624995	6.266188320470092e-26
-0.4771521509062495	-2.9270672748183224e-26
-0.4770911157499995	-1.211483135564244e-25
-0.4770300805937495	-2.1269932582728027e-25
-0.4769690454374995	-3.0365320984898805e-25
-0.4769080102812495	-3.9374102438016174e-25
-0.4768469751249995	-4.826960818871099e-25
-0.4767859399687495	-5.7025511914679815e-25
-0.4767249048124995	-6.561588698903581e-25
-0.4766638696562495	-7.401524872123579e-25
-0.4766028344999995	-8.219871419914503e-25
-0.4765417993437495	-9.014198619659638e-25
-0.4764807641874995	-9.78214557154173e-25
-0.4764197290312495	-1.0521433373188237e-24
-0.4763586938749995	-1.1229858702575874e-24
-0.4762976587187495	-1.1905313658356072e-24
-0.4762366235624995	-1.2545785002139033e-24
-0.4761755884062495	-1.31493585864343e-24
-0.4761145532499995	-1.3714232799753336e-24
-0.4760535180937495	-1.4238714233395718e-24
-0.4759924829374995	-1.472122988895274e-24
-0.4759314477812495	-1.5160329903124859e-24
-0.4758704126249995	-1.5554689412968951e-24
-0.4758093774687495	-1.5903116367915423e-24
-0.4757483423124995	-1.6204551973336861e-24
-0.4756873071562495	-1.6458075896505286e-24
-0.4756262719999995	-1.6662908171556305e-24
-0.4755652368437495	-1.681841105986138e-24
-0.4755042016874995	-1.692409279112356e-24
-0.4754431665312495	-1.6979606959681127e-24
-0.4753821313749995	-1.6984754785604508e-24
-0.4753210962187495	-1.693948621019753e-24
-0.4752600610624995	-1.6843898848653755e-24
-0.4751990259062495	-1.6698238460782724e-24
-0.4751379907499995	-1.6502899137660717e-24
-0.4750769555937495	-1.6258420338061592e-24
-0.4750159204374995	-1.5965487008003668e-24
-0.4749548852812495	-1.5624927579707754e-24
-0.4748938501249995	-1.5237709735517696e-24
-0.4748328149687495	-1.4804940786911712e-24
-0.4747717798124995	-1.4327861602984207e-24
-0.4747107446562495	-1.380784409348188e-24
-0.4746497094999995	-1.3246388898120388e-24
-0.4745886743437495	-1.2645117391996587e-24
-0.4745276391874995	-1.2005770541650758e-24
-0.4744666040312495	-1.1330202508880392e-24
-0.4744055688749995	-1.0620373834893344e-24
-0.4743445337187495	-9.878349222665731e-25
-0.4742834985624995	-9.106286882478527e-25
-0.4742224634062495	-8.306436822230629e-25
-0.4741614282499995	-7.481132245383259e-25
-0.4741003930937495	-6.6327798170380125e-25
-0.4740393579374995	-5.76385988697847e-25
-0.4739783227812495	-4.876911499972506e-25
-0.4739172876249995	-3.974529292192216e-25
-0.4738562524687495	-3.0593564038436577e-25
-0.4737952173124995	-2.134072514764182e-25
-0.4737341821562495	-1.201391439918251e-25
-0.4736731469999995	-2.640487081187464e-26
-0.4736121118437495	6.752043592436511e-26
-0.4735510766874995	1.6136081067097231e-25
-0.4734900415312495	2.5484051302484324e-25
-0.4734290063749995	3.47684582246662e-25
-0.4733679712187495	4.39619780325961e-25
-0.4733069360624995	5.303754628349053e-25
-0.4732459009062495	6.196840845132812e-25
-0.4731848657499995	7.072823906087946e-25
-0.4731238305937495	7.929119624531053e-25
-0.4730627954374995	8.763197490256373e-25
-0.4730017602812495	9.57259582456487e-25
-0.4729407251249995	1.03549195273669e-24
-0.4728796899687495	1.1107852100255145e-24
-0.4728186548124995	1.1829166614405709e-24
-0.4727576196562495	1.2516721451314707e-24
-0.4726965844999995	1.3168476259740859e-24
-0.4726355493437495	1.3782496553936974e-24
-0.4725745141874995	1.4356953101912085e-24
-0.4725134790312495	1.48901353188983e-24
-0.4724524438749995	1.5380453227492514e-24
-0.4723914087187495	1.5826438719632944e-24
-0.4723303735624995	1.6226756857171376e-24
-0.4722693384062495	1.658020445615115e-24
-0.4722083032499995	1.6885715083758206e-24
-0.4721472680937495	1.714236440567516e-24
-0.4720862329374995	1.734936904859519e-24
-0.4720251977812495	1.7506093362993828e-24
-0.4719641626249995	1.7612047722251457e-24
-0.4719031274687495	1.7666891961447577e-24
-0.4718420923124995	1.7670436814154286e-24
-0.4717810571562495	1.7622642366958896e-24
