Time	Frequency
-0.5000529626250056	-5.936106104287052e-25
-0.49999192746875565	-5.47214403080106e-25
-0.49993089231250565	-4.977246865108766e-25
-0.49986985715625565	-4.454242777450053e-25
-0.49980882200000565	-3.9061218972121075e-25
-0.49974778684375565	-3.3360205279215354e-25
-0.49968675168750565	-2.747200434236971e-25
-0.49962571653125565	-2.1430312492114116e-25
-0.49956468137500565	-1.5269738402103065e-25
-0.49950364621875565	-9.025556432146145e-26
-0.49944261106250565	-2.733526860293026e-26
-0.49938157590625565	3.570281478025508e-26
-0.49932054075000565	9.849756142352777e-26
-0.49925950559375565	1.6068913333507513e-25
-0.49919847043750565	2.2192091695583505e-25
-0.49913743528125565	2.818419576153805e-25
-0.49907640012500565	3.4010877112921976e-25
-0.49901536496875565	3.963873018426551e-25
-0.49895432981250565	4.503548804234404e-25
-0.49889329465625565	5.017021302652788e-25
-0.49883225950000565	5.501347695191404e-25
-0.49877122434375565	5.953751817760037e-25
-0.49871018918750565	6.3716415227011295e-25
-0.49864915403125565	6.752623763477015e-25
-0.49858811887500565	7.094516986149942e-25
-0.49852708371875565	7.39536518150838e-25
-0.49846604856250565	7.653449058259787e-25
-0.49840501340625565	7.867295130916879e-25
-0.49834397825000565	8.0356855771045145e-25
-0.49828294309375565	8.157664376746942e-25
-0.49822190793750565	8.232542968937745e-25
-0.49816087278125565	8.259905162756845e-25
-0.49809983762500565	8.239608650837597e-25
-0.49803880246875565	8.171786152790619e-25
-0.49797776731250565	8.056845273284298e-25
-0.49791673215625565	7.895465702871837e-25
-0.49785569700000565	7.688595005352228e-25
-0.49779466184375565	7.437444573144932e-25
-0.49773362668750565	7.1434813869835845e-25
-0.49767259153125565	6.808419386155784e-25
-0.49761155637500565	6.434212170511305e-25
-0.49755052121875565	6.023038123200047e-25
-0.49748948606250565	5.577289791756914e-25
-0.49742845090625565	5.099562168966388e-25
-0.49736741575000565	4.592632696881562e-25
-0.49730638059375565	4.0594495640845756e-25
-0.49724534543750565	3.503114461135752e-25
-0.49718431028125565	2.926860586063765e-25
-0.49712327512500565	2.334039341405985e-25
-0.49706223996875565	1.7280983637200602e-25
-0.49700120481250565	1.1125597419073014e-25
-0.49694016965625565	4.910045138741043e-26
-0.49687913450000565	-1.3295324347198576e-26
-0.49681809934375565	-7.556842737251566e-26
-0.49675706418750565	-1.3735644980311742e-25
-0.49669602903125565	-1.9830005606854093e-25
-0.49663499387500565	-2.5804440969596223e-25
-0.49657395871875565	-3.162417446470454e-25
-0.49651292356250565	-3.725533032738361e-25
-0.49645188840625565	-4.266509466764436e-25
-0.49639085325000565	-4.782195716474176e-25
-0.49632981809375565	-5.269586301319903e-25
-0.49626878293750565	-5.725838705859157e-25
-0.49620774778125565	-6.1482914780255935e-25
-0.49614671262500565	-6.534478782339792e-25
-0.49608567746875565	-6.882145045568706e-25
-0.49602464231250565	-7.189257566182334e-25
-0.49596360715625565	-7.454019332113815e-25
-0.49590257200000565	-7.6748794190104385e-25
-0.49584153684375565	-7.850540752028084e-25
-0.49578050168750565	-7.979969622156065e-25
-0.49571946653125565	-8.062400856144584e-25
-0.49565843137500565	-8.097341995676887e-25
-0.49559739621875565	-8.0845773806553575e-25
-0.49553636106250565	-8.0241684151497325e-25
-0.49547532590625565	-7.916453966865909e-25
-0.49541429075000565	-7.7620485755301625e-25
-0.49535325559375565	-7.561838697666518e-25
-0.49529222043750565	-7.316977502246651e-25
-0.49523118528125565	-7.028879199182968e-25
-0.49517015012500565	-6.699210183835438e-25
-0.49510911496875565	-6.32987887905003e-25
-0.49504807981250565	-5.9230270842446135e-25
-0.49498704465625565	-5.481014637200703e-25
-0.49492600950000565	-5.006407882844177e-25
-0.49486497434375565	-4.5019649481930255e-25
-0.49480393918750565	-3.9706168728168727e-25
-0.49474290403125565	-3.415456336121003e-25
-0.49468186887500565	-2.839713692757236e-25
-0.49462083371875565	-2.2467404238810026e-25
-0.49455979856250565	-1.6399937351227296e-25
-0.49449876340625565	-1.0230093149750231e-25
-0.49443772825000565	-3.993859120322355e-26
-0.49437669309375565	2.2723692041762366e-26
-0.49431565793750565	8.53199853053867e-26
-0.49425462278125565	1.4748451271036918e-25
-0.49419358762500565	2.0885395952728288e-25
-0.49413255246875565	2.690691886342734e-25
-0.49407151731250565	3.2777768326578293e-25
-0.49401048215625565	3.8463546350749635e-25
-0.49394944700000565	4.393091182004224e-25
-0.49388841184375565	4.914777709470739e-25
-0.49382737668750565	5.408348187500001e-25
-0.49376634153125565	5.870898987585632e-25
-0.49370530637500565	6.299706088189572e-25
-0.49364427121875565	6.692238658722784e-25
-0.49358323606250565	7.046175360011885e-25
-0.49352220090625565	7.359420079188494e-25
-0.49346116575000565	7.630109557652948e-25
-0.49340013059375565	7.856628420325976e-25
-0.49333909543750565	8.037617498767697e-25
-0.49327806028125565	8.171980369391259e-25
-0.49321702512500565	8.258893152235044e-25
-0.49315598996875565	8.297805854732073e-25
-0.49309495481250565	8.28844798115215e-25
-0.49303391965625565	8.23083054521283e-25
-0.49297288450000565	8.125244168491839e-25
-0.49291184934375565	7.972259416830707e-25
-0.49285081418750565	7.772723142794488e-25
-0.49278977903125565	7.52775307905625e-25
-0.49272874387500565	7.238732742055387e-25
-0.49266770871875565	6.907302174336989e-25
-0.49260667356250565	6.535349390250373e-25
-0.49254563840625565	6.125000005577273e-25
-0.49248460325000565	5.678603438400773e-25
-0.49242356809375565	5.198721133630934e-25
-0.49236253293750565	4.688110180224331e-25
-0.49230149778125565	4.14970926243731e-25
-0.49224046262500565	3.586620145424596e-25
-0.49217942746875565	3.002088898511671e-25
-0.49211839231250565	2.399491088471883e-25
-0.49205735715625565	1.7823073680574223e-25
-0.49199632200000565	1.1541057365475737e-25
-0.49193528684375565	5.185215278082098e-26
-0.49187425168750565	-1.2076631806381321e-26
-0.49181321653125565	-7.600529775327772e-26
-0.49175218137500565	-1.395632822025878e-25
-0.49169114621875565	-2.023820170987286e-25
-0.49163011106250565	-2.640967612292484e-25
-0.49156907590625565	-3.24349184149231e-25
-0.49150804075000565	-3.827891992335801e-25
-0.49144700559375565	-4.390770009698862e-25
-0.49138597043750565	-4.928851846513617e-25
-0.49132493528125565	-5.439004379327189e-25
-0.49126390012500565	-5.918256802389988e-25
-0.49120286496875565	-6.36381541394655e-25
-0.49114182981250565	-6.773080202466618e-25
-0.49108079465625565	-7.143662153745696e-25
-0.49101975950000565	-7.473395500740248e-25
-0.49095872434375565	-7.760349973284264e-25
-0.49089768918750565	-8.002843447749513e-25
-0.49083665403125565	-8.199452766998434e-25
-0.49077561887500565	-8.349019072014546e-25
-0.49071458371875565	-8.450656663655329e-25
-0.49065354856250565	-8.503759623471168e-25
-0.49059251340625565	-8.508002494481148e-25
-0.49053147825000565	-8.46334413131862e-25
-0.49047044309375565	-8.370028253035123e-25
-0.49040940793750565	-8.228580871537429e-25
-0.49034837278125565	-8.039809052128764e-25
-0.49028733762500565	-7.804794617229581e-25
-0.49022630246875565	-7.524888989155206e-25
-0.49016526731250565	-7.201705895737781e-25
-0.49010423215625565	-6.837110441791265e-25
-0.49004319700000565	-6.433210044887451e-25
-0.48998216184375565	-5.992340957150258e-25
-0.48992112668750565	-5.51705601767865e-25
-0.48986009153125565	-5.010109107314561e-25
-0.48979905637500565	-4.474437987469555e-25
-0.48973802121875565	-3.913149992445976e-25
-0.48967698606250565	-3.3295023569544307e-25
-0.48961595090625565	-2.726882357758362e-25
-0.48955491575000565	-2.108789282860613e-25
-0.48949388059375565	-1.4788137944883697e-25
-0.48943284543750565	-8.406156351280856e-26
-0.48937181028125565	-1.9790402290401596e-26
-0.48931077512500565	4.455846298163085e-26
-0.48924973996875565	1.0861095269213037e-25
-0.48918870481250565	1.7199453896703655e-25
-0.48912766965625565	2.343405977388933e-25
-0.48906663450000565	2.9528644776914203e-25
-0.48900559934375565	3.544775338398696e-25
-0.48894456418750565	4.1156954810726712e-25
-0.48888352903125565	4.662302096631246e-25
-0.48882249387500565	5.18141542607295e-25
-0.48876145871875565	5.6700160648377715e-25
-0.48870042356250565	6.125260537455471e-25
-0.48863938840625565	6.544500804142076e-25
-0.48857835325000565	6.925300330409802e-25
-0.48851731809375565	7.265444815767186e-25
-0.48845628293750565	7.562957700064232e-25
-0.48839524778125565	7.816113058750075e-25
-0.48833421262500565	8.023442259595104e-25
-0.48827317746875565	8.183745809412976e-25
-0.48821214231250565	8.296098739664322e-25
-0.48815110715625565	8.359856496509655e-25
-0.48809007200000565	8.374659678026818e-25
-0.48802903684375565	8.340434442879467e-25
-0.48796800168750565	8.257394799490606e-25
-0.48790696653125565	8.126040539625901e-25
-0.48784593137500565	7.94715463064946e-25
-0.48778489621875565	7.721798338540097e-25
-0.48772386106250565	7.451305945592458e-25
-0.48766282590625565	7.13727658797579e-25
-0.48760179075000565	6.781563852840308e-25
-0.48754075559375565	6.386267272043874e-25
-0.48747972043750565	5.953718933595433e-25
-0.48741868528125565	5.486468063184576e-25
-0.48735765012500565	4.987269537023746e-25
-0.48729661496875565	4.45906673281841e-25
-0.48723557981250565	3.904971322040728e-25
-0.48717454465625565	3.328248758309993e-25
-0.48711350950000565	2.7322992055202384e-25
-0.48705247434375565	2.120634464323028e-25
-0.48699143918750565	1.4968586006100685e-25
-0.48693040403125565	8.646499491915299e-26
-0.48686936887500565	2.2773583768964575e-26
-0.48680833371875565	-4.101294941813898e-26
-0.48674729856250565	-1.045183910641805e-25
-0.48668626340625565	-1.67368135399198e-25
-0.48662522825000565	-2.2919139538113267e-25
-0.48656419309375565	-2.8962339165061214e-25
-0.48650315793750565	-3.483074131806753e-25
-0.48644212278125565	-4.048969369083581e-25
-0.48638108762500565	-4.590577624630561e-25
-0.48632005246875565	-5.104699082817542e-25
-0.48625901731250565	-5.5882947958383645e-25
-0.48619798215625565	-6.038504979883298e-25
-0.48613694700000565	-6.452666070131691e-25
-0.48607591184375565	-6.828326267695777e-25
-0.48601487668750565	-7.163259576345418e-25
-0.48595384153125565	-7.455480119688844e-25
-0.48589280637500565	-7.703253071897575e-25
-0.48583177121875565	-7.905104572543341e-25
-0.48577073606250565	-8.059832193393044e-25
-0.48570970090625565	-8.166510516170401e-25
-0.48564866575000565	-8.22449686384771e-25
-0.48558763059375565	-8.233436375806971e-25
-0.48552659543750565	-8.193263203163704e-25
-0.48546556028125565	-8.1042009091061965e-25
-0.48540452512500565	-7.966762234977398e-25
-0.48534348996875565	-7.781745242710584e-25
-0.48528245481250565	-7.550229227533706e-25
-0.48522141965625565	-7.273568842531669e-25
-0.48516038450000565	-6.953384910700074e-25
-0.48509934934375565	-6.591556794876232e-25
-0.48503831418750565	-6.190210353089688e-25
-0.48497727903125565	-5.7517052461392395e-25
-0.48491624387500565	-5.278622336966768e-25
-0.48485520871875565	-4.773747216012324e-25
-0.48479417356250565	-4.240055399007198e-25
-0.48473313840625565	-3.680693290975445e-25
-0.48467210325000565	-3.0989602625829905e-25
-0.48461106809375565	-2.498291164052284e-25
-0.48455003293750565	-1.8822320353572192e-25
-0.48448899778125565	-1.2544231270585105e-25
-0.48442796262500565	-6.185769685673956e-26
-0.48436692746875565	2.154749080779014e-27
-0.48430589231250565	6.62160682199428e-26
-0.48424485715625565	1.2994694618512917e-25
-0.48418382200000565	1.929699204536618e-25
-0.48412278684375565	2.549112205404422e-25
-0.48406175168750565	3.154035242618413e-25
-0.48400071653125565	3.740876775769032e-25
-0.48393968137500565	4.306150359796385e-25
-0.48387864621875565	4.846495525950579e-25
-0.48381761106250565	5.358695694818972e-25
-0.48375657590625565	5.839700262174646e-25
-0.48369554075000565	6.286639266729329e-25
-0.48363450559375565	6.696843009176057e-25
-0.48357347043750565	7.067857629321045e-25
-0.48351243528125565	7.397457997553547e-25
-0.48345140012500565	7.683662564160336e-25
-0.48339036496875565	7.924745249829346e-25
-0.48332932981250565	8.11924502338783e-25
-0.48326829465625565	8.265974420164012e-25
-0.48320725950000565	8.364028093237297e-25
-0.48314622434375565	8.412787167631414e-25
-0.48308518918750565	8.411923272770178e-25
-0.48302415403125565	8.361400884350469e-25
-0.48296311887500565	8.261477640184002e-25
-0.48290208371875565	8.112703038109023e-25
-0.48284104856250565	7.915915133004668e-25
-0.48278001340625565	7.672235828771236e-25
-0.48271897825000565	7.383064883679276e-25
-0.48265794309375565	7.050071385514143e-25
-0.48259690793750565	6.675183533596442e-25
-0.48253587278125565	6.260578628911241e-25
-0.48247483762500565	5.808670122074184e-25
-0.48241380246875565	5.322091946796258e-25
-0.48235276731250565	4.803684738859829e-25
-0.48229173215625565	4.2564798821829465e-25
-0.48223069700000565	3.6836786744741435e-25
-0.48216966184375565	3.088636928916955e-25
-0.48210862668750565	2.4748429389980416e-25
-0.48204759153125565	1.8458975239535531e-25
-0.48198655637500565	1.2054950476422812e-25
-0.48192552121875565	5.57396770395179e-26
-0.48186448606250565	-9.458702852292651e-27
-0.48180345090625565	-7.466196948505078e-26
-0.48174241575000565	-1.3948637090414663e-25
-0.48168138059375565	-2.0355020574480931e-25
-0.48162034543750565	-2.6647587156099827e-25
-0.48155931028125565	-3.2789231011540634e-25
-0.48149827512500565	-3.8743731232749046e-25
-0.48143723996875565	-4.447593906808768e-25
-0.48137620481250565	-4.995198868816491e-25
-0.48131516965625565	-5.513952643631104e-25
-0.48125413450000565	-6.000788570551768e-25
-0.48119309934375565	-6.452823456982682e-25
-0.48113206418750565	-6.867381683851674e-25
-0.48107102903125565	-7.242006676156076e-25
-0.48100999387500565	-7.574473609852386e-25
-0.48094895871875565	-7.862808938045836e-25
-0.48088792356250565	-8.105296470339565e-25
-0.48082688840625565	-8.300489998271469e-25
-0.48076585325000565	-8.447222709126364e-25
-0.48070481809375565	-8.544611831549964e-25
-0.48064378293750565	-8.592066912425895e-25
-0.48058274778125565	-8.589291066526333e-25
-0.48052171262500565	-8.53628379285268e-25
-0.48046067746875565	-8.433341761630486e-25
-0.48039964231250565	-8.281055986084828e-25
-0.48033860715625565	-8.080309183372127e-25
-0.48027757200000565	-7.8322707748780335e-25
-0.48021653684375565	-7.538389852233375e-25
-0.48015550168750565	-7.200386069694447e-25
-0.48009446653125565	-6.820241867157631e-25
-0.48003343137500565	-6.4001878130928705e-25
-0.47997239621875565	-5.942690970735616e-25
-0.47991136106250565	-5.45044256929928e-25
-0.47985032590625565	-4.926337260609149e-25
-0.47978929075000565	-4.3734598677239055e-25
-0.47972825559375565	-3.79506800561975e-25
-0.47966722043750565	-3.1945684767628314e-25
-0.47960618528125565	-2.5755000431685837e-25
-0.47954515012500565	-1.9415155115529871e-25
-0.47948411496875565	-1.296352129449853e-25
-0.47942307981250565	-6.438163095321641e-26
-0.47936204465625565	1.2237243720827252e-27
-0.47930100950000565	6.679397890262893e-26
-0.47923997434375565	1.3194176330592995e-25
-0.47917893918750565	1.9628211613548322e-25
-0.47911790403125565	2.5943531410535017e-25
-0.47905686887500565	3.210279599868531e-25
-0.47899583371875565	3.806960838061462e-25
-0.47893479856250565	4.38087121989213e-25
-0.47887376340625565	4.928617477712126e-25
-0.47881272825000565	5.446962278758601e-25
-0.47875169309375565	5.932840135223694e-25
-0.47869065793750565	6.383378620106487e-25
-0.47862962278125565	6.795914581998588e-25
-0.47856858762500565	7.168008454701155e-25
-0.47850755246875565	7.497461092218749e-25
-0.47844651731250565	7.782325067730652e-25
-0.47838548215625565	8.02091804341191e-25
-0.47832444700000565	8.21183163948492e-25
-0.47826341184375565	8.353939253390186e-25
-0.47820237668750565	8.446405576268815e-25
-0.47814134153125565	8.488688661790788e-25
-0.47808030637500565	8.480544499319072e-25
-0.47801927121875565	8.42202919831096e-25
-0.47795823606250565	8.313497907121082e-25
-0.47789720090625565	8.155602722369823e-25
-0.47783616575000565	7.949289232164474e-25
-0.47777513059375565	7.695792065736802e-25
-0.47771409543750565	7.396625014498708e-25
-0.47765306028125565	7.053574484873011e-25
-0.47759202512500565	6.668688927513308e-25
-0.47753098996875565	6.2442649042584305e-25
-0.47746995481250565	5.782834653946679e-25
-0.47740891965625565	5.287152327053871e-25
-0.47734788450000565	4.760175787115797e-25
-0.47728684934375565	4.205048264494451e-25
-0.47722581418750565	3.625084532103771e-25
-0.47716477903125565	3.0237452315490303e-25
-0.47710374387500565	2.4046187865447906e-25
-0.47704270871875565	1.771403453660899e-25
-0.47698167356250565	1.127878607510666e-25
-0.47692063840625565	4.778873966471669e-26
-0.47685960325000565	-1.7468668123148052e-26
-0.47679856809375565	-8.259457392729613e-26
-0.47673753293750565	-1.4719975666885419e-25
-0.47667649778125565	-2.108980866426953e-25
-0.47661546262500565	-2.733087106592322e-25
-0.47655442746875565	-3.3405829346651414e-25
-0.47649339231250565	-3.9278354637317143e-25
-0.47643235715625565	-4.491329758195196e-25
-0.47637132200000565	-5.027691128199554e-25
-0.47631028684375565	-5.533708740943043e-25
-0.47624925168750565	-6.00634989269132e-25
-0.47618821653125565	-6.442780268597099e-25
-0.47612718137500565	-6.840382944914632e-25
-0.47606614621875565	-7.196770083576425e-25
-0.47600511106250565	-7.509800092272974e-25
-0.47594407590625565	-7.777590769002254e-25
-0.47588304075000565	-7.998528186779113e-25
-0.47582200559375565	-8.171278506816449e-25
-0.47576097043750565	-8.294796160671086e-25
-0.47569993528125565	-8.368328602298635e-25
-0.47563890012500565	-8.391422189284781e-25
-0.47557786496875565	-8.363925240116179e-25
-0.47551682981250565	-8.28598788904919e-25
-0.47545579465625565	-8.158062379825869e-25
-0.47539475950000565	-7.980900156612995e-25
-0.47533372434375565	-7.75554742811908e-25
-0.47527268918750565	-7.483339227746412e-25
-0.47521165403125565	-7.165891213383807e-25
-0.47515061887500565	-6.805090967522993e-25
-0.47508958371875565	-6.403086109597138e-25
-0.47502854856250565	-5.962271013385807e-25
-0.47496751340625565	-5.4852750114951185e-25
-0.47490647825000565	-4.974943755999898e-25
-0.47484544309375565	-4.434323929718391e-25
-0.47478440793750565	-3.86664661829822e-25
-0.47472337278125565	-3.2753035188650554e-25
-0.47466233762500565	-2.663832090485736e-25
-0.47460130246875565	-2.0358916280246715e-25
-0.47454026731250565	-1.395240082029014e-25
-0.47447923215625565	-7.457161646220276e-26
-0.47441819700000565	-9.121154232489111e-27
-0.47435716184375565	5.643500427333541e-26
-0.47429612668750565	1.2170345317387446e-25
-0.47423509153125565	1.8629261453488793e-25
-0.47417405637500565	2.498145108254383e-25
-0.47411302121875565	3.1188734054137263e-25
-0.47405198606250565	3.721381632260883e-25
-0.47399095090625565	4.302041819507084e-25
-0.47392991575000565	4.857357581983254e-25
-0.47386888059375565	5.383984688059378e-25
-0.47380784543750565	5.878743861814353e-25
-0.47374681028125565	6.3386485166094065e-25
-0.47368577512500565	6.760918779496425e-25
-0.47362473996875565	7.142996431270949e-25
-0.47356370481250565	7.482564992592528e-25
-0.47350266965625565	7.7775601055809315e-25
-0.47344163450000565	8.0261825195299785e-25
-0.47338059934375565	8.226911414478606e-25
-0.47331956418750565	8.378510349076266e-25
-0.47325852903125565	8.480036614424475e-25
-0.47319749387500565	8.530848185435273e-25
-0.47313645871875565	8.530604642478032e-25
-0.47307542356250565	8.479271948213792e-25
-0.47301438840625565	8.3771224451565e-25
-0.47295335325000565	8.22473218820337e-25
-0.47289231809375565	8.022978807478141e-25
-0.47283128293750565	7.773036280585472e-25
-0.47277024778125565	7.476367774314402e-25
-0.47270921262500565	7.134716803132923e-25
-0.47264817746875565	6.750097966040935e-25
-0.47258714231250565	6.324783925007729e-25
-0.47252610715625565	5.861292623908645e-25
-0.47246507200000565	5.362371991591893e-25
-0.47240403684375565	4.830983716958473e-25
-0.47234300168750565	4.270286030114324e-25
-0.47228196653125565	3.6836139809911313e-25
-0.47222093137500565	3.0744608939695176e-25
-0.47215989621875565	2.44645569381038e-25
