Time	Frequency
-0.5000356272812496	-8.592195765644115e-25
-0.4999745921249996	-7.930234732493675e-25
-0.4999135569687496	-7.240422616292998e-25
-0.4998525218124996	-6.5250586063929755e-25
-0.4997914866562496	-5.786529216107807e-25
-0.4997304514999996	-5.027298126530017e-25
-0.4996694163437496	-4.249904709658775e-25
-0.4996083811874996	-3.4569480452010836e-25
-0.4995473460312496	-2.651081162695614e-25
-0.4994863108749996	-1.835004154072802e-25
-0.4994252757187496	-1.0114522320238536e-25
-0.4993642405624996	-1.8318697940773454e-26
-0.4993032054062496	6.470133520958499e-26
-0.4992421702499996	1.4763581845455404e-25
-0.4991811350937496	2.3020645898208824e-25
-0.4991200999374996	3.1213561383614363e-25
-0.4990590647812496	3.9314750975595756e-25
-0.4989980296249996	4.72970005573912e-25
-0.4989369944687496	5.513340308767736e-25
-0.4988759593124996	6.27975652841948e-25
-0.4988149241562496	7.026369196497159e-25
-0.4987538889999996	7.750657424804748e-25
-0.4986928538437496	8.450179593771775e-25
-0.4986318186874996	9.122576787229971e-25
-0.4985707835312496	9.765575228913129e-25
-0.4985097483749996	1.0377004761005815e-24
-0.4984487132187496	1.0954799019314607e-24
-0.4983876780624996	1.1497002089594638e-24
-0.4983266429062496	1.200178023110636e-24
-0.4982656077499996	1.2467424029687532e-24
-0.4982045725937496	1.2892354608791375e-24
-0.4981435374374996	1.3275130564394673e-24
-0.4980825022812496	1.3614453102560284e-24
-0.4980214671249996	1.3909167677631777e-24
-0.4979604319687496	1.4158270914082426e-24
-0.4978993968124996	1.4360913472097229e-24
-0.4978383616562496	1.4516401491665555e-24
-0.4977773264999996	1.4624200925301148e-24
-0.4977162913437496	1.4683937975639791e-24
-0.4976552561874996	1.4695401548772943e-24
-0.4975942210312496	1.4658543232033918e-24
-0.4975331858749996	1.457347769713334e-24
-0.4974721507187496	1.4440482974877306e-24
-0.4974111155624996	1.4259998670888752e-24
-0.4973500804062496	1.4032625232765785e-24
-0.4972890452499996	1.3759121702342173e-24
-0.4972280100937496	1.3440403368466552e-24
-0.4971669749374996	1.3077538419447895e-24
-0.4971059397812496	1.2671744852120976e-24
-0.4970449046249996	1.2224386024548581e-24
-0.4969838694687496	1.1736965957267252e-24
-0.4969228343124996	1.121112560918215e-24
-0.4968617991562496	1.064863457270164e-24
-0.4968007639999996	1.005138852228931e-24
-0.4967397288437496	9.421401074367346e-25
-0.4966786936874996	8.760794821735613e-25
-0.4966176585312496	8.071800204125727e-25
-0.4965566233749996	7.356741809483434e-25
-0.4964955882187496	6.618032281051064e-25
-0.4964345530624996	5.8581678869809755e-25
-0.4963735179062496	5.079714292181578e-25
-0.4963124827499996	4.285301103878776e-25
-0.4962514475937496	3.477614261508849e-25
-0.4961904124374996	2.659382929379413e-25
-0.4961293772812496	1.8333732652820184e-25
-0.4960683421249996	1.002380025115983e-25
-0.4960073069687496	1.6921149373388853e-26
-0.4959462718124996	-6.633128054580036e-26
-0.4958852366562496	-1.4923749930854376e-25
-0.4958242014999996	-2.31517266420489e-25
-0.4957631663437496	-3.128919650475034e-25
-0.4957021311874996	-3.9308609826770752e-25
-0.4956410960312496	-4.718284876708906e-25
-0.4955800608749996	-5.488524805583838e-25
-0.4955190257187496	-6.238971892590488e-25
-0.4954579905624996	-6.9670887623430415e-25
-0.4953969554062496	-7.670408738147613e-25
-0.4953359202499996	-8.34655129849745e-25
-0.4952748850937496	-8.993228982662894e-25
-0.4952138499374996	-9.608251682278621e-25
-0.4951528147812496	-1.018954011360705e-24
-0.4950917796249996	-1.073512638426164e-24
-0.4950307444687496	-1.1243165775563819e-24
-0.4949697093124996	-1.1711941997843666e-24
-0.4949086741562496	-1.2139869475386306e-24
-0.4948476389999996	-1.2525503982633019e-24
-0.4947866038437496	-1.2867545783213838e-24
-0.4947255686874996	-1.3164840943406318e-24
-0.4946645335312496	-1.3416390243232185e-24
-0.4946034983749996	-1.3621350315057301e-24
-0.4945424632187496	-1.3779035002072203e-24
-0.4944814280624996	-1.388892142497436e-24
-0.4944203929062496	-1.3950648498139143e-24
-0.4943593577499996	-1.3964019842558853e-24
-0.4942983225937496	-1.3929004797747255e-24
-0.4942372874374996	-1.3845737060720063e-24
-0.4941762522812496	-1.3714516148793663e-24
-0.4941152171249996	-1.353580500127694e-24
-0.4940541819687496	-1.3310229029099428e-24
-0.4939931468124996	-1.3038574671046975e-24
-0.4939321116562496	-1.2721784949635232e-24
-0.4938710764999996	-1.236095864586322e-24
-0.4938100413437496	-1.1957345098261425e-24
-0.4937490061874996	-1.1512339603861846e-24
-0.4936879710312496	-1.1027480885134127e-24
-0.4936269358749996	-1.050444322280838e-24
-0.4935659007187496	-9.945032770510223e-25
-0.4935048655624996	-9.351180125421849e-25
-0.4934438304062496	-8.72493505553431e-25
-0.4933827952499996	-8.0684588063882695e-25
-0.4933217600937496	-7.3840152117753945e-25
-0.4932607249374996	-6.673967692296122e-25
-0.4931996897812496	-5.940764989065623e-25
-0.4931386546249996	-5.186937134124687e-25
-0.4930776194687496	-4.415087425643637e-25
-0.4930165843124996	-3.627878717600138e-25
-0.4929555491562496	-2.828028915801616e-25
-0.4928945139999996	-2.0183007545001145e-25
-0.4928334788437496	-1.201491175203154e-25
-0.4927724436874996	-3.8042144183820805e-26
-0.4927114085312496	4.4206938405784485e-26
-0.4926503733749996	1.2631377779932843e-25
-0.4925893382187496	2.0799449787473525e-25
-0.4925283030624996	2.8896627129909275e-25
-0.4924672679062496	3.6894888493072177e-25
-0.4924062327499996	4.476653285094104e-25
-0.4923451975937496	5.248426990613646e-25
-0.4922841624374996	6.002134250418057e-25
-0.4922231272812496	6.73515948405588e-25
-0.4921620921249996	7.444957125479956e-25
-0.4921010569687496	8.129060193176879e-25
-0.4920400218124996	8.785088751353722e-25
-0.4919789866562496	9.410758250391803e-25
-0.4919179514999996	1.0003888088895634e-24
-0.4918569163437496	1.0562406610219415e-24
-0.4917958811874996	1.1084361544923601e-24
-0.4917348460312496	1.1567925848699747e-24
-0.4916738108749996	1.2011400607596541e-24
-0.4916127757187496	1.241322693023357e-24
-0.4915517405624996	1.277198701337016e-24
-0.4914907054062496	1.3086408831043487e-24
-0.4914296702499996	1.3355374773232364e-24
-0.4913686350937496	1.357792067188414e-24
-0.4913075999374996	1.3753241674423827e-24
-0.4912465647812496	1.3880695940427488e-24
-0.4911855296249996	1.3959804146143359e-24
-0.4911244944687496	1.3990253725122661e-24
-0.4910634593124996	1.3971898933390258e-24
-0.4910024241562496	1.3904761572202559e-24
-0.4909413889999996	1.3789031080595937e-24
-0.4908803538437496	1.362506379846454e-24
-0.4908193186874996	1.3413382378356339e-24
-0.4907582835312496	1.3154673305695428e-24
-0.4906972483749996	1.2849785226509309e-24
-0.4906362132187496	1.249972593485928e-24
-0.4905751780624996	1.2105659091009442e-24
-0.4905141429062496	1.16688999536403e-24
-0.4904531077499996	1.1190911488765682e-24
-0.4903920725937496	1.067329938863696e-24
-0.4903310374374996	1.0117805866671444e-24
-0.4902700022812496	9.52630492244273e-25
-0.4902089671249996	8.900794932722338e-25
-0.4901479319687496	8.243392960381041e-25
-0.4900868968124996	7.556325961502018e-25
-0.4900258616562496	6.841925372808569e-25
-0.4899648264999996	6.1026175336369145e-25
-0.4899037913437496	5.340914395190656e-25
-0.4898427561874996	4.559409554474e-25
-0.4897817210312496	3.7607636700164735e-25
-0.4897206858749996	2.9476980828408263e-25
-0.4896596507187496	2.12298740007237e-25
-0.4895986155624996	1.2894461663149298e-25
-0.4895375804062496	4.499210226745152e-26
-0.4894765452499996	-3.927172769849682e-26
-0.4894155100937496	-1.235587782683575e-25
-0.4893544749374996	-2.075804880875365e-25
-0.4892934397812496	-2.9104909938892283e-25
-0.4892324046249996	-3.7367863452074094e-25
-0.4891713694687496	-4.551856400353588e-25
-0.4891103343124996	-5.352905698702651e-25
-0.4890492991562496	-6.137182516934987e-25
-0.4889882639999996	-6.901992773970911e-25
-0.4889272288437496	-7.644706670002328e-25
-0.4888661936874996	-8.362769352603878e-25
-0.4888051585312496	-9.05370720166953e-25
-0.4887441233749996	-9.7151398271201e-25
-0.4886830882187496	-1.0344786965762772e-24
-0.4886220530624996	-1.0940472436933832e-24
-0.4885610179062496	-1.1500140323442075e-24
-0.4884999827499996	-1.202185292833849e-24
-0.4884389475937496	-1.2503803249881961e-24
-0.4883779124374996	-1.29443200205115e-24
-0.4883168772812496	-1.3341871243753614e-24
-0.4882558421249996	-1.3695073803137551e-24
-0.4881948069687496	-1.400269349835829e-24
-0.4881337718124996	-1.4263653312194932e-24
-0.4880727366562496	-1.4477035155246388e-24
-0.4880117014999996	-1.4642083129676148e-24
-0.4879506663437496	-1.4758207332643184e-24
-0.4878896311874996	-1.4824984865206398e-24
-0.4878285960312496	-1.484216204422708e-24
-0.4877675608749996	-1.4809654683230199e-24
-0.4877065257187496	-1.4727549538627565e-24
-0.4876454905624996	-1.4596103024858102e-24
-0.4875844554062496	-1.4415740939728791e-24
-0.4875234202499996	-1.418705711125219e-24
-0.4874623850937496	-1.3910811422514624e-24
-0.4874013499374996	-1.3587927040197193e-24
-0.4873403147812496	-1.3219487229469847e-24
-0.4872792796249996	-1.2806733224710629e-24
-0.4872182444687496	-1.2351056919730548e-24
-0.4871572093124996	-1.1853999323340121e-24
-0.4870961741562496	-1.1317244447785554e-24
-0.4870351389999996	-1.0742611196204336e-24
-0.4869741038437496	-1.0132051453416434e-24
-0.4869130686874996	-9.487639766275091e-25
-0.4868520335312496	-8.811567931207112e-25
-0.4867909983749996	-8.106137470711712e-25
-0.4867299632187496	-7.373751183913342e-25
-0.4866689280624996	-6.616905932430748e-25
-0.4866078929062496	-5.8381816568558735e-25
-0.4865468577499996	-5.040237021332711e-25
-0.4864858225937496	-4.225795583667503e-25
-0.4864247874374996	-3.3976380485284427e-25
-0.4863637522812496	-2.558595450360863e-25
-0.4863027171249996	-1.7115344618786543e-25
-0.4862416819687496	-8.59352016074573e-26
-0.4861806468124996	-4.962428030609469e-28
-0.4861196116562496	8.487108415630828e-26
-0.4860585764999996	1.6987467988622822e-25
-0.4859975413437496	2.542235875767883e-25
-0.4859365061874996	3.3762889512322145e-25
-0.4858754710312496	4.198052063554806e-25
-0.4858144358749996	5.004708391339485e-25
-0.4857534007187496	5.793495755316745e-25
-0.4856923655624996	6.561711913491077e-25
-0.4856313304062496	7.306723167475074e-25
-0.4855702952499996	8.025979213620628e-25
-0.4855092600937496	8.717012633000959e-25
-0.4854482249374996	9.377456547151358e-25
-0.4853871897812496	1.0005048561500911e-24
-0.4853261546249996	1.0597636379852548e-24
-0.4852651194687496	1.1153191451321046e-24
-0.4852040843124996	1.1669810206522648e-24
-0.4851430491562496	1.2145723751831305e-24
-0.4850820139999996	1.2579303056079595e-24
-0.4850209788437496	1.2969064923511545e-24
-0.4849599436874996	1.3313677600311247e-24
-0.4848989085312496	1.3611963676164098e-24
-0.4848378733749996	1.3862906722090283e-24
-0.4847768382187496	1.4065653214036406e-24
-0.4847158030624996	1.4219515375144194e-24
-0.4846547679062496	1.4323974974084109e-24
-0.4845937327499996	1.4378684297881957e-24
-0.4845326975937496	1.4383466886634034e-24
-0.4844716624374996	1.433831954282024e-24
-0.4844106272812496	1.424341151055834e-24
-0.4843495921249996	1.4099083970057e-24
-0.4842885569687496	1.3905849521009076e-24
-0.4842275218124996	1.366438953194719e-24
-0.4841664866562496	1.3375553154242955e-24
-0.4841054514999996	1.3040353006362547e-24
-0.4840444163437496	1.2659962599127339e-24
-0.4839833811874996	1.2235712770649334e-24
-0.4839223460312496	1.176908547503345e-24
-0.4838613108749996	1.1261710841726636e-24
-0.4838002757187496	1.0715359679034578e-24
-0.4837392405624996	1.0131938895083847e-24
-0.4836782054062496	9.513483979553999e-25
-0.4836171702499996	8.862151980613933e-25
-0.4835561350937496	8.180215650314568e-25
-0.4834950999374996	7.470052889742713e-25
-0.4834340647812496	6.734140799851279e-25
-0.4833730296249996	5.975046864504663e-25
-0.4833119944687496	5.195418183963471e-25
-0.4832509593124996	4.39797514200305e-25
-0.4831899241562496	3.5855008608427465e-25
-0.4831288889999996	2.7608290014861e-25
-0.4830678538437496	1.9268392674967638e-25
-0.4830068186874996	1.0864423120577368e-25
-0.4829457835312496	2.425728020859356e-26
-0.4828847483749996	-6.018214580088082e-26
-0.4828237132187496	-1.4437919235356832e-25
-0.4827626780624996	-2.280394900318505e-25
-0.4827016429062496	-3.1087070715151514e-25
-0.4826406077499996	-3.925830885577278e-25
-0.4825795725937496	-4.728909539432465e-25
-0.4825185374374996	-5.515131855597128e-25
-0.4824575022812496	-6.281744288882243e-25
-0.4823964671249996	-7.026064241166841e-25
-0.4823354319687496	-7.745481108952711e-25
-0.4822743968124996	-8.43747303279085e-25
-0.4822133616562496	-9.099612661387645e-25
-0.4821523264999996	-9.729574565864327e-25
-0.4820912913437496	-1.0325145386436144e-24
-0.4820302561874996	-1.0884230795311013e-24
-0.4819692210312496	-1.1404862327801044e-24
-0.4819081858749996	-1.1885205332749249e-24
-0.4818471507187496	-1.232356456080158e-24
-0.4817861155624996	-1.2718389832254351e-24
-0.4817250804062496	-1.3068283449781005e-24
-0.4816640452499996	-1.3372002439812951e-24
-0.4816030100937496	-1.3628464705198073e-24
-0.4815419749374996	-1.3836752786201443e-24
-0.4814809397812496	-1.3996116475398719e-24
-0.4814199046249996	-1.4105975414634929e-24
-0.4813588694687496	-1.4165922268886655e-24
-0.4812978343124996	-1.417572347699611e-24
-0.4812367991562496	-1.4135319594162897e-24
-0.4811757639999996	-1.4044826901639584e-24
-0.4811147288437496	-1.3904536259732488e-24
-0.4810536936874996	-1.3714912044771694e-24
-0.4809926585312496	-1.3476591183560501e-24
-0.4809316233749996	-1.3190380897073516e-24
-0.4808705882187496	-1.2857255198120611e-24
-0.4808095530624996	-1.2478353223783945e-24
-0.4807485179062496	-1.205497332873496e-24
-0.4806874827499996	-1.1588570306444152e-24
-0.4806264475937496	-1.1080749999057294e-24
-0.4805654124374996	-1.0533262200691982e-24
-0.4805043772812496	-9.947998066120962e-25
-0.4804433421249996	-9.32698015504055e-25
-0.4803823069687496	-8.672356276260922e-25
-0.4803212718124996	-7.986394735540262e-25
-0.4802602366562496	-7.271472416050906e-25
-0.4801992014999996	-6.530069088697793e-25
-0.4801381663437496	-5.764759292225849e-25
-0.4800771311874996	-4.978200502812954e-25
-0.4800160960312496	-4.173127276601524e-25
-0.4799550608749996	-3.3523398918891185e-25
-0.4798940257187496	-2.5186953725868426e-25
-0.4798329905624996	-1.6750958331448671e-25
-0.4797719554062496	-8.244809892026889e-26
-0.4797109202499996	3.0181842651970924e-27
-0.4796498850937496	8.859141990121116e-26
-0.4795888499374996	1.7397269895643193e-25
-0.4795278147812496	2.588637888765417e-25
-0.4794667796249996	3.4296833915353192e-25
-0.4794057444687496	4.259919071540307e-25
-0.4793447093124996	5.076441800213521e-25
-0.4792836741562496	5.876393794263645e-25
-0.4792226389999996	6.656970476449902e-25
-0.4791616038437496	7.415436499665174e-25
-0.4791005686874996	8.149130697279534e-25
-0.4790395335312496	8.855477189360993e-25
-0.4789784983749996	9.531992017015459e-25
-0.4789174632187496	1.0176297570318421e-24
-0.4788564280624996	1.0786124654703876e-24
-0.4787953929062496	1.1359321346943788e-24
-0.4787343577499996	1.1893867231194757e-24
-0.4786733225937496	1.2387871424205169e-24
-0.4786122874374996	1.2839583817657795e-24
-0.4785512522812496	1.3247402682832733e-24
-0.4784902171249996	1.3609877087119887e-24
-0.4784291819687496	1.3925713202580648e-24
-0.4783681468124996	1.4193780052942521e-24
-0.4783071116562496	1.4413112042847899e-24
-0.4782460764999996	1.4582913026863975e-24
-0.4781850413437496	1.4702559388677667e-24
-0.4781240061874996	1.4771601818423444e-24
-0.4780629710312496	1.4789767676832772e-24
-0.4780019358749996	1.475696101833879e-24
-0.4779409007187496	1.4673264121959437e-24
-0.4778798655624996	1.4538936683709082e-24
-0.4778188304062496	1.4354414900847996e-24
-0.4777577952499996	1.4120310761942806e-24
-0.4776967600937496	1.3837408914813315e-24
-0.4776357249374996	1.3506665246594746e-24
-0.4775746897812496	1.3129202701154226e-24
-0.4775136546249996	1.2706307501435092e-24
-0.4774526194687496	1.2239426044812053e-24
-0.4773915843124996	1.1730157310775963e-24
-0.4773305491562496	1.1180250491198609e-24
-0.4772695139999996	1.0591597202927844e-24
-0.4772084788437496	9.96622350509393e-25
-0.4771474436874996	9.306287170368745e-25
-0.4770864085312496	8.614066020766312e-25
-0.4770253733749996	7.891951171561341e-25
-0.4769643382187496	7.142441068869695e-25
-0.4769033030624996	6.3681295370535705e-25
-0.4768422679062496	5.571698120395376e-25
-0.4767812327499996	4.7559073440258485e-25
-0.4767201975937496	3.9235870604669602e-25
-0.4766591624374996	3.077624628620716e-25
-0.4765981272812496	2.220957335924477e-25
-0.4765370921249996	1.3565616666425328e-25
-0.4764760569687496	4.87440722299958e-26
-0.4764150218124996	-3.8338280722162306e-26
-0.4763539866562496	-1.2528807400135824e-25
-0.4762929514999996	-2.118026097419381e-25
-0.4762319163437496	-2.9758075638901835e-25
-0.4761708811874996	-3.8232391099893654e-25
-0.4761098460312496	-4.657365710132501e-25
-0.4760488108749996	-5.475282156362787e-25
-0.4759877757187496	-6.274137115895227e-25
-0.4759267405624996	-7.0511428760565e-25
-0.4758657054062496	-7.80358972844454e-25
-0.4758046702499996	-8.528851814833552e-25
-0.4757436350937496	-9.224396358297753e-25
-0.4756825999374996	-9.887794724786283e-25
-0.4756215647812496	-1.0516729532267068e-24
-0.4755605296249996	-1.1109002959019391e-24
-0.4754994944687496	-1.1662544370177532e-24
-0.4754384593124996	-1.2175417812704323e-24
-0.4753774241562496	-1.2645830415482842e-24
-0.4753163889999996	-1.3072134648871794e-24
-0.4752553538437496	-1.3452838688619815e-24
-0.4751943186874996	-1.3786610294696584e-24
-0.4751332835312496	-1.4072278022040049e-24
-0.4750722483749996	-1.4308842043712012e-24
-0.4750112132187496	-1.4495472607702782e-24
-0.4749501780624996	-1.463151304170809e-24
-0.4748891429062496	-1.4716486617545898e-24
-0.4748281077499996	-1.4750093301808974e-24
-0.4747670725937496	-1.4732212965161429e-24
-0.4747060374374996	-1.4662907009187e-24
-0.4746450022812496	-1.454241609529987e-24
-0.4745839671249996	-1.43711604764236e-24
-0.4745229319687496	-1.4149738874132738e-24
-0.4744618968124996	-1.3878925866816778e-24
-0.4744008616562496	-1.3559669241751519e-24
-0.4743398264999996	-1.3193087421001259e-24
-0.4742787913437496	-1.2780464667646763e-24
-0.4742177561874996	-1.232324761036886e-24
-0.4741567210312496	-1.1823039513709232e-24
-0.4740956858749996	-1.1281594756125141e-24
-0.4740346507187496	-1.0700813656190855e-24
-0.4739736155624996	-1.0082734630039114e-24
-0.4739125804062496	-9.429527349250844e-25
-0.4738515452499996	-8.743486473714743e-25
-0.4737905100937496	-8.027021732423739e-25
-0.4737294749374996	-7.282650436537697e-25
-0.4736684397812496	-6.512989686021009e-25
-0.4736074046249996	-5.720744688306441e-25
-0.4735463694687496	-4.908701952335625e-25
-0.4734853343124996	-4.079718299341103e-25
-0.4734242991562496	-3.236709520966676e-25
-0.4733632639999996	-2.3826438140116487e-25
-0.4733022288437496	-1.520527425380599e-25
-0.4732411936874996	-6.533956198313712e-26
-0.4731801585312496	2.1569566000068755e-26
-0.4731191233749996	1.0836859248526276e-25
-0.4730580882187496	1.9475146458944957e-25
-0.4729970530624996	2.8041370046718083e-25
-0.4729360179062496	3.6505324322968077e-25
-0.4728749827499996	4.483713780814269e-25
-0.4728139475937496	5.300742725594291e-25
-0.4727529124374996	6.098733402129437e-25
-0.4726918772812496	6.874869335791449e-25
-0.4726308421249996	7.626407970213544e-25
-0.4725698069687496	8.350693109530634e-25
-0.4725087718124996	9.045165510618325e-25
-0.4724477366562496	9.707367155927668e-25
-0.4723867014999996	1.0334955948502226e-24
-0.4723256663437496	1.0925709417044796e-24
-0.4722646311874996	1.1477534443337392e-24
-0.4722035960312496	1.1988475726525661e-24
-0.4721425608749996	1.2456719937446132e-24
-0.4720815257187496	1.2880604919543897e-24
-0.4720204905624996	1.3258624327795933e-24
-0.4719594554062496	1.3589432390537158e-24
-0.4718984202499996	1.3871851191311844e-24
-0.4718373850937496	1.4104871359920485e-24
-0.4717763499374996	1.4287658454310009e-24
-0.4717153147812496	1.441955591706737e-24
