Time	Frequency
-0.5000281333437471	0.20767742696930813
-0.49996709818749707	0.23425905905899838
-0.49990606303124707	0.25976530546380255
-0.49984502787499707	0.2840733259384989
-0.49978399271874707	0.3070658317034709
-0.49972295756249707	0.32863183569435045
-0.49966192240624707	0.3486668597040392
-0.49960088724999707	0.36707381501599057
-0.49953985209374707	0.38376323079206054
-0.49947881693749707	0.3986536545264587
-0.49941778178124707	0.4116722855677558
-0.49935674662499707	0.422755036672132
-0.49929571146874707	0.43184707392885885
-0.49923467631249707	0.4389029365001987
-0.49917364115624707	0.4438868343513332
-0.49911260599999707	0.4467728223908941
-0.49905157084374707	0.44754486120670955
-0.49899053568749707	0.4461970116135687
-0.49892950053124707	0.44273336742903757
-0.49886846537499707	0.437168097241107
-0.49880743021874707	0.4295253725101133
-0.49874639506249707	0.41983925207247597
-0.49868535990624707	0.4081535392417067
-0.49862432474999707	0.39452154908749243
-0.49856328959374707	0.3790059215801753
-0.49850225443749707	0.3616782584064942
-0.49844121928124707	0.34261881706920166
-0.49838018412499707	0.3219161937888237
-0.49831914896874707	0.2996667641778357
-0.49825811381249707	0.2759744049495403
-0.49819707865624707	0.2509498536023956
-0.49813604349999707	0.22471023956274377
-0.49807500834374707	0.19737867426579905
-0.49801397318749707	0.16908331203640967
-0.49795293803124707	0.1399571386753445
-0.49789190287499707	0.11013716782979484
-0.49783086771874707	0.07976363733447271
-0.49776983256249707	0.048979675259059365
-0.49770879740624707	0.017930378287197114
-0.49764776224999707	-0.013237857962131292
-0.49758672709374707	-0.04437793394077748
-0.49752569193749707	-0.075342770286395
-0.49746465678124707	-0.10598613035689372
-0.49740362162499707	-0.13616314612838717
-0.49734258646874707	-0.16573112162608508
-0.49728155131249707	-0.19455016252463372
-0.49722051615624707	-0.22248382287716434
-0.49715948099999707	-0.24939992117377022
-0.49709844584374707	-0.27517086130030943
-0.49703741068749707	-0.2996745502960667
-0.49697637553124707	-0.32279483246193513
-0.49691534037499707	-0.3444220047255217
-0.49685430521874707	-0.364453509674724
-0.49679327006249707	-0.3827942237487702
-0.49673223490624707	-0.3993570857419906
-0.49667119974999707	-0.41406337407974336
-0.49661016459374707	-0.42684321774548795
-0.49654912943749707	-0.4376358754724291
-0.49648809428124707	-0.44638990054117655
-0.49642705912499707	-0.4530636727120367
-0.49636602396874707	-0.45762536975829315
-0.49630498881249707	-0.46005314841123507
-0.49624395365624707	-0.4603353679165829
-0.49618291849999707	-0.45847055914915236
-0.49612188334374707	-0.45446744769583314
-0.49606084818749707	-0.4483449132276492
-0.49599981303124707	-0.4401319510600178
-0.49593877787499707	-0.4298674691860282
-0.49587774271874707	-0.41760015629399927
-0.49581670756249707	-0.4033882367505379
-0.49575567240624707	-0.38729917072137254
-0.49569463724999707	-0.36940940406363754
-0.49563360209374707	-0.34980393628507006
-0.49557256693749707	-0.32857593485125014
-0.49551153178124707	-0.3058263272528213
-0.49545049662499707	-0.28166331227732166
-0.49538946146874707	-0.2562017715599641
-0.49532842631249707	-0.22956283054939897
-0.49526739115624707	-0.20187325354193217
-0.49520635599999707	-0.17326478581714272
-0.49514532084374707	-0.14387355168155957
-0.49508428568749707	-0.11383943262537374
-0.49502325053124707	-0.08330544078191048
-0.49496221537499707	-0.05241686621112856
-0.49490118021874707	-0.021320771666526118
-0.49484014506249707	0.009834787583120522
-0.49477910990624707	0.040901493943282664
-0.49471807474999707	0.07173146132061488
-0.49465703959374707	0.1021778918262231
-0.49459600443749707	0.1320958211220171
-0.49453496928124707	0.16134292789456406
-0.49447393412499707	0.18977990164021785
-0.49441289896874707	0.217271446792122
-0.49435186381249707	0.2436868156894154
-0.49429082865624707	0.2689002685005264
-0.49422979349999707	0.2927919558178673
-0.49416875834374707	0.3152483445737083
-0.49410772318749707	0.33616267873216504
-0.49404668803124707	0.3554357079300706
-0.49398565287499707	0.3729760332553198
-0.49392461771874707	0.38870045948603155
-0.49386358256249707	0.4025346611865922
-0.49380254740624707	0.41441326198302375
-0.49374151224999707	0.42428029534436
-0.49368047709374707	0.4320895147116058
-0.49361944193749707	0.4378044580134096
-0.49355840678124707	0.44139880016515964
-0.49349737162499707	0.44285635501252923
-0.49343633646874707	0.4421712294252579
-0.49337530131249707	0.4393478294611515
-0.49331426615624707	0.43440082532017876
-0.49325323099999707	0.42735511479492744
-0.49319219584374707	0.41824569026394
-0.49313116068749707	0.4071174910210264
-0.49307012553124707	0.3940251254393988
-0.49300909037499707	0.37903272532422627
-0.49294805521874707	0.3622135519359416
-0.49288702006249707	0.34364962695291756
-0.49282598490624707	0.323431469979088
-0.49276494974999707	0.3016575080272808
-0.49270391459374707	0.27843369551972064
-0.49264287943749707	0.2538730410964206
-0.49258184428124707	0.22809491358898829
-0.49252080912499707	0.20122465388336078
-0.49245977396874707	0.17339287497153735
-0.49239873881249707	0.14473479812081727
-0.49233770365624707	0.11538970678423709
-0.49227666849999707	0.085500227787998
-0.49221563334374707	0.0552115883118487
-0.49215459818749707	0.02467100814127622
-0.49209356303124707	-0.005972985158110216
-0.49203252787499707	-0.036571503010740754
-0.49197149271874707	-0.0669756718581984
-0.49191045756249707	-0.0970375410413001
-0.49184942240624707	-0.12661092675762983
-0.49178838724999707	-0.15555179679968972
-0.49172735209374707	-0.18371920663315358
-0.49166631693749707	-0.21097592448389646
-0.49160528178124707	-0.23718904653470896
-0.49154424662499707	-0.2622307242118164
-0.49148321146874707	-0.2859786807206773
-0.49142217631249707	-0.30831687042885436
-0.49136114115624707	-0.3291360716772071
-0.49130010599999707	-0.34833429368320584
-0.49123907084374707	-0.36581744918411857
-0.49117803568749707	-0.3814996409721469
-0.49111700053124707	-0.39530364428448644
-0.49105596537499707	-0.4071614230772389
-0.49099493021874707	-0.4170141510108894
-0.49093389506249707	-0.42481279384479076
-0.49087285990624707	-0.4305182816138239
-0.49081182474999707	-0.4341015369969469
-0.49075078959374707	-0.43554384032330545
-0.49068975443749707	-0.4348368222335072
-0.49062871928124707	-0.4319824833423829
-0.49056768412499707	-0.42699325374162395
-0.49050664896874707	-0.41989191319549063
-0.49044561381249707	-0.4107114771364548
-0.49038457865624707	-0.39949504567328437
-0.49032354349999707	-0.386295630859074
-0.49026250834374707	-0.37117585915885476
-0.49020147318749707	-0.3542077043955897
-0.49014043803124707	-0.33547215702785477
-0.49007940287499707	-0.31505878836396306
-0.49001836771874707	-0.2930653989130615
-0.48995733256249707	-0.26959746807604845
-0.48989629740624707	-0.24476770221083088
-0.48983526224999707	-0.21869549872360292
-0.48977422709374707	-0.1915063333254393
-0.48971319193749707	-0.16333119646753133
-0.48965215678124707	-0.13430592209185915
-0.48959112162499707	-0.10457062085023182
-0.48953008646874707	-0.07426883711123743
-0.48946905131249707	-0.04354709983268558
-0.48940801615624707	-0.012554014380491424
-0.48934698099999707	0.018560483246424318
-0.48928594584374707	0.04964550491396066
-0.48922491068749707	0.0805504329542551
-0.48916387553124707	0.11112530416608238
-0.48910284037499707	0.14122159926040875
-0.48904180521874707	0.17069302482584128
-0.48898077006249707	0.1993961926383987
-0.48891973490624707	0.22719138710706951
-0.48885869974999707	0.2539429716269379
-0.48879766459374707	0.27952047284696296
-0.48873662943749707	0.3037988443352213
-0.48867559428124707	0.32665920684271826
-0.48861455912499707	0.3479896066342183
-0.48855352396874707	0.36768512411072257
-0.48849248881249707	0.3856488568308738
-0.48843145365624707	0.40179216815759816
-0.48837041849999707	0.4160349976831437
-0.48830938334374707	0.4283065760097872
-0.48824834818749707	0.43854549402699905
-0.48818731303124707	0.44670009345467887
-0.48812627787499707	0.452728805982593
-0.48806524271874707	0.4566002443069105
-0.48800420756249707	0.45829339692142346
-0.48794317240624707	0.4577977734325651
-0.48788213724999707	0.4551134308606042
-0.48782110209374707	0.4502509699816137
-0.48776006693749707	0.4432315098539682
-0.48769903178124707	0.4340866011223891
-0.48763799662499707	0.42285805779097213
-0.48757696146874707	0.4095977547687762
-0.48751592631249707	0.394367450075228
-0.48745489115624707	0.3772383834857092
-0.48739385599999707	0.3582910252399065
-0.48733282084374707	0.3376147015796243
-0.48727178568749707	0.3153070623380799
-0.48721075053124707	0.2914737267002482
-0.48714971537499707	0.26622777064054404
-0.48708868021874707	0.23968906317975933
-0.48702764506249707	0.2119838274315361
-0.48696660990624707	0.1832440680720952
-0.48690557474999707	0.1536066771103054
-0.48684453959374707	0.12321308084646834
-0.48678350443749707	0.09220845820358567
-0.48672246928124707	0.06074087958613007
-0.48666143412499707	0.028960873488067654
-0.48660039896874707	-0.0029795317598485323
-0.48653936381249707	-0.03492747585645141
-0.48647832865624707	-0.0667298600284072
-0.48641729349999707	-0.09823430754948922
-0.48635625834374707	-0.1292898613709403
-0.48629522318749707	-0.15974749301809968
-0.48623418803124707	-0.18946109128244412
-0.48617315287499707	-0.2182880882662599
-0.48611211771874707	-0.24609004416279429
-0.48605108256249707	-0.27273349663000745
-0.48599004740624707	-0.2980904167485109
-0.48592901224999707	-0.3220390226823428
-0.48586797709374707	-0.34446421879312933
-0.48580694193749707	-0.3652582133827342
-0.48574590678124707	-0.3843211144245506
-0.48568487162499707	-0.40156123094847435
-0.48562383646874707	-0.4168957578240516
-0.48556280131249707	-0.4302509784798891
-0.48550176615624707	-0.44156271490512905
-0.48544073099999707	-0.45077668941071186
-0.48537969584374707	-0.4578486544819469
-0.48531866068749707	-0.4627447625725339
-0.48525762553124707	-0.46544162511256193
-0.48519659037499707	-0.4659264682339279
-0.48513555521874707	-0.46419723732243995
-0.48507452006249707	-0.46026252452822736
-0.48501348490624707	-0.4541416021938122
-0.48495244974999707	-0.4458643310646079
-0.48489141459374707	-0.43547096728760487
-0.48483037943749707	-0.42301201052496745
-0.48476934428124707	-0.4085479880455424
-0.48470830912499707	-0.39214908786759617
-0.48464727396874707	-0.37389489337691256
-0.48458623881249707	-0.3538739815540697
-0.48452520365624707	-0.33218344651061427
-0.48446416849999707	-0.30892854718927126
-0.48440313334374707	-0.28422206121498167
-0.48434209818749707	-0.2581838164472849
-0.48428106303124707	-0.23094014972795068
-0.48422002787499707	-0.2026231740998381
-0.48415899271874707	-0.17337025378381582
-0.48409795756249707	-0.14332331965069645
-0.48403692240624707	-0.11262810730302283
-0.48397588724999707	-0.08143350245014477
-0.48391485209374707	-0.049890885020496066
-0.48385381693749707	-0.018153260578411174
-0.48379278178124707	0.013625410467874953
-0.48373174662499707	0.04529093365830545
-0.48367071146874707	0.07668968706335413
-0.48360967631249707	0.10766934991227382
-0.48354864115624707	0.1380796130943574
-0.48348760599999707	0.16777293928503884
-0.48342657084374707	0.19660536153026165
-0.48336553568749707	0.22443694621705576
-0.48330450053124707	0.2511327671753385
-0.48324346537499707	0.27656339485345394
-0.48318243021874707	0.30060548349300453
-0.48312139506249707	0.32314260354958935
-0.48306035990624707	0.34406548487523936
-0.48299932474999707	0.3632728768632168
-0.48293828959374707	0.3806718162086448
-0.48287725443749707	0.39617813114351097
-0.48281621928124707	0.4097169955338493
-0.48275518412499707	0.42122303928912874
-0.48269414896874707	0.4306409336269288
-0.48263311381249707	0.4379254958818189
-0.48257207865624707	0.4430419352541812
-0.48251104349999707	0.445966116588147
-0.48245000834374707	0.446684565799393
-0.48238897318749707	0.44519460719124715
-0.48232793803124707	0.4415043739676982
-0.48226690287499707	0.4356327460074073
-0.48220586771874707	0.4276092841288447
-0.48214483256249707	0.41747408704018923
-0.48208379740624707	0.4052775780156665
-0.48202276224999707	0.39108030100868496
-0.48196172709374707	0.3749525902334754
-0.48190069193749707	0.35697423328145034
-0.48183965678124707	0.33723413019863735
-0.48177862162499707	0.3158298137623868
-0.48171758646874707	0.2928669521488953
-0.48165655131249707	0.26845893818252115
-0.48159551615624707	0.2427262563372965
-0.48153448099999707	0.21579581589073468
-0.48147344584374707	0.1878006042830623
-0.48141241068749707	0.15887876378425295
-0.48135137553124707	0.12917290877637774
-0.48129034037499707	0.0988297878011023
-0.48122930521874707	0.06799913838963553
-0.48116827006249707	0.036833122936262515
-0.48110723490624707	0.005485716507630419
-0.48104619974999707	-0.02588828427018021
-0.48098516459374707	-0.05713379230985112
-0.48092412943749707	-0.08809640915949951
-0.48086309428124707	-0.11862306562964371
-0.48080205912499707	-0.14856260772939736
-0.48074102396874707	-0.17776693311427771
-0.48067998881249707	-0.20609143382954662
-0.48061895365624707	-0.23339561913936369
-0.48055791849999707	-0.2595441389511482
-0.48049688334374707	-0.2844071945379949
-0.48043584818749707	-0.30786123981107716
-0.48037481303124707	-0.32978959783752343
-0.48031377787499707	-0.3500830411872397
-0.48025274271874707	-0.3686403849284262
-0.48019170756249707	-0.3853688044218593
-0.48013067240624707	-0.4001845313251958
-0.48006963724999707	-0.41301313167802856
-0.48000860209374707	-0.4237898704338433
-0.47994756693749707	-0.43246010187581907
-0.47988653178124707	-0.43897947886782523
-0.47982549662499707	-0.4433142458420391
-0.47976446146874707	-0.4454413235048075
-0.47970342631249707	-0.4453485026735774
-0.47964239115624707	-0.44303448641575444
-0.47958135599999707	-0.43850887876359124
-0.47952032084374707	-0.43179217987356816
-0.47945928568749707	-0.4229156753700778
-0.47939825053124707	-0.4119212830329275
-0.47933721537499707	-0.39886136636641273
-0.47927618021874707	-0.3837984898575662
-0.47921514506249707	-0.3668050729299696
-0.47915410990624707	-0.3479631214567281
-0.47909307474999707	-0.327363759471386
-0.47903203959374707	-0.3051067881689579
-0.47897100443749707	-0.28130029286511904
-0.47890996928124707	-0.25606000513554833
-0.47884893412499707	-0.22950877172866646
-0.47878789896874707	-0.20177599217331588
-0.47872686381249707	-0.17299705507914556
-0.47866582865624707	-0.1433123876242435
-0.47860479349999707	-0.11286709535127178
-0.47854375834374707	-0.08181028291449348
-0.47848272318749707	-0.05029379383256886
-0.47842168803124707	-0.018472155483799192
-0.47836065287499707	0.013498498109303784
-0.47829961771874707	0.045461419550702355
-0.47823858256249707	0.077259541969585
-0.47817754740624707	0.10873654303629407
-0.47811651224999707	0.1397376607000301
-0.47805547709374707	0.17011023893979996
-0.47799444193749707	0.19970456468046632
-0.47793340678124707	0.22837478587518856
-0.47787237162499707	0.2559793228554909
-0.47781133646874707	0.28238172967829755
-0.47775030131249707	0.3074514597656653
-0.47768926615624707	0.3310642830611078
-0.47762823099999707	0.35310308254447087
-0.47756719584374707	0.373458365492542
-0.47750616068749707	0.3920287896162631
-0.47744512553124707	0.40872173162677833
-0.47738409037499707	0.42345365619169406
-0.47732305521874707	0.43615058325361555
-0.47726202006249707	0.44674851744847566
-0.47720098490624707	0.4551936292349842
-0.47713994974999707	0.46144261298790507
-0.47707891459374707	0.4654629504530372
-0.47701787943749707	0.4672329617253941
-0.47695684428124707	0.4667419999615273
-0.47689580912499707	0.4639904852448053
-0.47683477396874707	0.45898992476980416
-0.47677373881249707	0.45176284875839845
-0.47671270365624707	0.44234267325689525
-0.47665166849999707	0.4307736472218353
-0.47659063334374707	0.41711051942064997
-0.47652959818749707	0.40141832432031777
-0.47646856303124707	0.38377215025682
-0.47640752787499707	0.36425660724384973
-0.47634649271874707	0.3429655518234949
-0.47628545756249707	0.3200016262496003
-0.47622442240624707	0.2954756774837119
-0.47616338724999707	0.26950626336721073
-0.47610235209374707	0.24221910815174139
-0.47604131693749707	0.21374647471066677
-0.47598028178124707	0.1842263992454334
-0.47591924662499707	0.15380225777946507
-0.47585821146874707	0.12262186351136917
-0.47579717631249707	0.09083670807212012
-0.47573614115624707	0.05860154406651831
-0.47567510599999707	0.026073209253653053
-0.47561407084374707	-0.006589943801118665
-0.47555303568749707	-0.03922866846056009
-0.47549200053124707	-0.07168396387498596
-0.47543096537499707	-0.10379756155970511
-0.47536993021874707	-0.1354127810084047
-0.47530889506249707	-0.166375438559007
-0.47524785990624707	-0.19653434253537086
-0.47518682474999707	-0.2257422963659919
-0.47512578959374707	-0.25385671673541005
-0.47506475443749707	-0.2807401953291796
-0.47500371928124707	-0.3062614957349574
-0.47494268412499707	-0.330295957685738
-0.47488164896874707	-0.35272608141135875
-0.47482061381249707	-0.37344234134195475
-0.47475957865624707	-0.39234353013307616
-0.47469854349999707	-0.4093372960826947
-0.47463750834374707	-0.4243406721538812
-0.47457647318749707	-0.4372804222784901
-0.47451543803124707	-0.44809342701108296
-0.47445440287499707	-0.45672697238674925
-0.47439336771874707	-0.46313909946131354
-0.47433233256249707	-0.46729869946619845
-0.47427129740624707	-0.4691857149489477
-0.47421026224999707	-0.46879132587136124
-0.47414922709374707	-0.46611784996003375
-0.47408819193749707	-0.46117884264374204
-0.47402715678124707	-0.4539990097490253
-0.47396612162499707	-0.4446140574840105
-0.47390508646874707	-0.433070578605608
-0.47384405131249707	-0.4194257591310631
-0.47378301615624707	-0.40374715371578423
-0.47372198099999707	-0.38611235104547853
-0.47366094584374707	-0.3666085474113326
-0.47359991068749707	-0.3453321759210894
-0.47353887553124707	-0.3223884216158507
-0.47347784037499707	-0.29789065675893406
-0.47341680521874707	-0.2719599893143685
-0.47335577006249707	-0.24472453756141185
-0.47329473490624707	-0.2163188448648818
-0.47323369974999707	-0.18688342369219485
-0.47317266459374707	-0.15656358790095296
-0.47311162943749707	-0.12550920489205403
-0.47305059428124707	-0.09387389514679477
-0.47298955912499707	-0.06181379306707396
-0.47292852396874707	-0.029487506111173626
-0.47286748881249707	0.002945172131746549
-0.47280645365624707	0.0353240111874831
-0.47274541849999707	0.06748883478959003
-0.47268438334374707	0.09928069433344826
-0.47262334818749707	0.1305423504564299
-0.47256231303124707	0.16111926053956085
-0.47250127787499707	0.19086021887070492
-0.47244024271874707	0.2196181210173593
-0.47237920756249707	0.24725079721851062
-0.47231817240624707	0.2736215291289214
-0.47225713724999707	0.29859998018130046
-0.47219610209374707	0.32206255628845254
-0.47213506693749707	0.3438932296554257
-0.47207403178124707	0.3639841188246929
-0.47201299662499707	0.38223580102897875
-0.47195196146874707	0.39855812111748407
-0.47189092631249707	0.4128703907765967
-0.47182989115624707	0.42510189822181016
-0.47176885599999707	0.435192310023248
-0.47170782084374707	0.4430918296985684
-0.47164678568749707	0.4487615878401929
-0.47158575053124707	0.4521737705220099
-0.47152471537499707	0.4533117720082035
-0.47146368021874707	0.4521702818149092
-0.47140264506249707	0.4487553195297361
-0.47134160990624707	0.4430842168339723
-0.47128057474999707	0.435185504624681
-0.47121953959374707	0.4250988167812475
-0.47115850443749707	0.41287467831922414
-0.47109746928124707	0.39857422975387424
-0.47103643412499707	0.382268996959274
-0.47097539896874707	0.3640404900634276
-0.47091436381249707	0.3439797688458458
-0.47085332865624707	0.32218709985968647
-0.47079229349999707	0.29877137798046577
-0.47073125834374707	0.2738495935843459
-0.47067022318749707	0.247546278601727
-0.47060918803124707	0.21999289730111188
-0.47054815287499707	0.19132722179202033
-0.47048711771874707	0.16169249056153923
-0.47042608256249707	0.13123691631646564
-0.47036504740624707	0.10011291138012926
