Time	Frequency
-0.5000555517499947	-0.29403663152257176
-0.4999945165937447	-0.2784322165247174
-0.4999334814374947	-0.26180905838296303
-0.4998724462812447	-0.24422640907777032
-0.4998114111249947	-0.2257469035951914
-0.4997503759687447	-0.2064364066869056
-0.4996893408124947	-0.18636382964858036
-0.4996283056562447	-0.1656007550600812
-0.4995672704999947	-0.14422132047674266
-0.4995062353437447	-0.12230186430110829
-0.4994452001874947	-0.09992070349415405
-0.4993841650312447	-0.07715782044973465
-0.4993231298749947	-0.0540946236323314
-0.4992620947187447	-0.03081362565925615
-0.4992010595624947	-0.007398115821884577
-0.4991400244062447	0.01606798746624733
-0.4990789892499947	0.03950068257651165
-0.4990179540937447	0.06281591556227162
-0.4989569189374947	0.08593006090003283
-0.4988958837812447	0.10876020741696385
-0.4988348486249947	0.13122428519454551
-0.4987738134687447	0.15324162493670607
-0.4987127783124947	0.1747330099364299
-0.4986517431562447	0.19562106798997822
-0.4985907079999947	0.21583057796903166
-0.4985296728437447	0.23528863964729196
-0.4984686376874947	0.253924996044903
-0.4984076025312447	0.27167231837771433
-0.4983465673749947	0.2884663638200794
-0.4982855322187447	0.3042462421572507
-0.4982244970624947	0.31895469606138815
-0.4981634619062447	0.3325381861146215
-0.4981024267499947	0.34494718844259326
-0.4980413915937447	0.35613631783611477
-0.4979803564374947	0.36606451183677996
-0.4979193212812447	0.3746951951826868
-0.4978582861249947	0.3819963321204075
-0.4977972509687447	0.3879406817282436
-0.4977362158124947	0.392505776794198
-0.4976751806562447	0.39567402721598127
-0.4976141454999947	0.39743287325582805
-0.4975531103437447	0.3977747059215776
-0.4974920751874947	0.39669698239920753
-0.4974310400312447	0.39420222929133286
-0.4973700048749947	0.39029798924260045
-0.4973089697187447	0.3849968562554011
-0.4972479345624947	0.3783163954993673
-0.4971868994062447	0.3702790890216557
-0.4971258642499947	0.3609122830563603
-0.4970648290937447	0.35024805317772456
-0.4970037939374947	0.3383231229419771
-0.4969427587812447	0.32517873948572656
-0.4968817236249947	0.31086048981413567
-0.4968206884687447	0.2954181957924625
-0.4967596533124947	0.27890569871413357
-0.4966986181562447	0.26138065938660465
-0.4966375829999947	0.2429044347989978
-0.4965765478437447	0.22354175095208673
-0.4965155126874947	0.20336053155780626
-0.4964544775312447	0.18243169883242427
-0.4963934423749947	0.16082883388186894
-0.4963324072187447	0.1386279563932699
-0.4962713720624947	0.11590729525104344
-0.4962103369062447	0.09274696539629314
-0.4961493017499947	0.06922862834211659
-0.4960882665937447	0.045435367764741504
-0.4960272314374947	0.021451222645237345
-0.4959661962812447	-0.002639042885719413
-0.4959051611249947	-0.026750187883067617
-0.4958441259687447	-0.050796927707535224
-0.4957830908124947	-0.07469407183197585
-0.4957220556562447	-0.09835701499900355
-0.4956610204999947	-0.1217018762266741
-0.4955999853437447	-0.14464585042360062
-0.4955389501874947	-0.16710760600265886
-0.4954779150312447	-0.18900738152840144
-0.4954168798749947	-0.2102674466244228
-0.4953558447187447	-0.23081229416083499
-0.4952948095624947	-0.2505688911578335
-0.4952337744062447	-0.26946705199178983
-0.4951727392499947	-0.287439541605929
-0.4951117040937447	-0.3044224050853459
-0.4950506689374947	-0.3203552398838918
-0.4949896337812447	-0.33518127514587764
-0.4949285986249947	-0.34884769479244243
-0.4948675634687447	-0.3613058070601201
-0.4948065283124947	-0.37251116398586037
-0.4947454931562447	-0.382423789199951
-0.4946844579999947	-0.3910082874475248
-0.4946234228437447	-0.39823396784362847
-0.4945623876874947	-0.4040749936858077
-0.4945013525312447	-0.4085104250474509
-0.4944403173749947	-0.4115243318202295
-0.4943792822187447	-0.41310585966782054
-0.4943182470624947	-0.41324921780864315
-0.4942572119062447	-0.4119537765586007
-0.4941961767499947	-0.4092240144437513
-0.4941351415937447	-0.4050695229029412
-0.4940741064374947	-0.39950498648235
-0.4940130712812447	-0.3925501097407633
-0.4939520361249947	-0.38422957550534564
-0.4938910009687447	-0.3745729211239536
-0.4938299658124947	-0.36361448623173775
-0.4937689306562447	-0.35139324468151967
-0.4937078954999947	-0.337952680907605
-0.4936468603437447	-0.32334067301019537
-0.4935858251874947	-0.3076092570627938
-0.4935247900312447	-0.29081448169776425
-0.4934637548749947	-0.2730162360058579
-0.4934027197187447	-0.25427798042623445
-0.4933416845624947	-0.23466652238065025
-0.4932806494062447	-0.21425187247189945
-0.4932196142499947	-0.19310686482035475
-0.4931585790937447	-0.17130695680546057
-0.4930975439374947	-0.1489300326186084
-0.4930365087812447	-0.12605594276379326
-0.4929754736249947	-0.10276641994598652
-0.4929144384687447	-0.07914468834944217
-0.4928534033124947	-0.05527510077610666
-0.4927923681562447	-0.031242998616375705
-0.4927313329999947	-0.007134279927289093
-0.4926702978437447	0.016964872185427367
-0.4926092626874947	0.04096830084316023
-0.4925482275312447	0.06479015721610272
-0.4924871923749947	0.08834523173332876
-0.4924261572187447	0.11154929848815442
-0.4923651220624947	0.13431933669389953
-0.4923040869062447	0.15657385979413557
-0.4922430517499947	0.1782332828541596
-0.4921820165937447	0.1992200820203521
-0.4921209814374947	0.21945914183465864
-0.4920599462812447	0.23887807943635245
-0.4919989111249947	0.2574073614777909
-0.4919378759687447	0.27498071242900174
-0.4918768408124947	0.2915352421265278
-0.4918158056562447	0.30701170749196416
-0.4917547704999947	0.32135477248744376
-0.4916937353437447	0.33451311999500155
-0.4916327001874947	0.34643970539815727
-0.4915716650312447	0.3570919161868995
-0.4915106298749947	0.36643171065855773
-0.4914495947187447	0.37442573771733123
-0.4913885595624947	0.3810455401883211
-0.4913275244062447	0.3862675514464572
-0.4912664892499947	0.39007324408439187
-0.4912054540937447	0.3924492260797192
-0.4911444189374947	0.39338719489486373
-0.4910833837812447	0.3928840730068772
-0.4910223486249947	0.3909419620089787
-0.4909613134687447	0.38756813743548496
-0.4909002783124947	0.3827750592100472
-0.4908392431562447	0.37658029729905473
-0.4907782079999947	0.36900647790365443
-0.4907171728437447	0.3600812163406103
-0.4906561376874947	0.34983700504005405
-0.4905951025312447	0.33831110412841237
-0.4905340673749947	0.32554541334587056
-0.4904730322187447	0.3115863074078097
-0.4904119970624947	0.29648450923379155
-0.4903509619062447	0.28029484397800714
-0.4902899267499947	0.2630761098074704
-0.4902288915937447	0.244890847611998
-0.4901678564374947	0.22580505476004395
-0.4901068212812447	0.20588807844680432
-0.4900457861249947	0.18521224406691864
-0.4899847509687447	0.1638526287907615
-0.4899237158124947	0.1418868589366814
-0.4898626806562447	0.1193947580527325
-0.4898016454999947	0.09645803655970055
-0.4897406103437447	0.07316010279002402
-0.4896795751874947	0.04958569687909597
-0.4896185400312447	0.025820511398517043
-0.4895575048749947	0.0019510946512658511
-0.4894964697187447	-0.021935705446097787
-0.4894354345624947	-0.04575291761651618
-0.4893743994062447	-0.06941372400101936
-0.4893133642499947	-0.09283193790411787
-0.4892523290937447	-0.1159221189535492
-0.4891912939374947	-0.13860004900829792
-0.4891302587812447	-0.16078292835660998
-0.4890692236249947	-0.18238969248632503
-0.4890081884687447	-0.20334138452735387
-0.4889471533124947	-0.22356133848178678
-0.4888861181562447	-0.24297549213044595
-0.4888250829999947	-0.26151269024204604
-0.4887640478437447	-0.2791049357163178
-0.4887030126874947	-0.2956875573140171
-0.4886419775312447	-0.31119954556916796
-0.4885809423749947	-0.3255837599404906
-0.4885199072187447	-0.3387870592440077
-0.4884588720624947	-0.3507605748583992
-0.4883978369062447	-0.3614598855185947
-0.4883368017499947	-0.3708451275292185
-0.4882757665937447	-0.3788811785864047
-0.4882147314374947	-0.3855378057004398
-0.4881536962812447	-0.3907897291899745
-0.4880926611249947	-0.39461674177014044
-0.4880316259687447	-0.397003803825497
-0.4879705908124947	-0.3979410617683073
-0.4879095556562447	-0.3974239089147302
-0.4878485204999947	-0.3954530082086037
-0.4877874853437447	-0.3920342806487556
-0.4877264501874947	-0.38717889420259693
-0.4876654150312447	-0.38090322312985764
-0.4876043798749947	-0.37322879613285437
-0.4875433447187447	-0.36418221481818486
-0.4874823095624947	-0.3537950666275918
-0.4874212744062447	-0.34210381233456805
-0.4873602392499947	-0.32914964578308137
-0.4872992040937447	-0.31497837434424125
-0.4872381689374947	-0.2996402295158209
-0.4871771337812447	-0.28318968023530805
-0.4871160986249947	-0.2656852937803578
-0.4870550634687447	-0.24718946712300113
-0.4869940283124947	-0.22776818931389237
-0.4869329931562447	-0.20749091460726662
-0.4868719579999947	-0.18643018630932565
-0.4868109228437447	-0.1646614002960074
-0.4867498876874947	-0.14226266522654157
-0.4866888525312447	-0.11931430359846672
-0.4866278173749947	-0.09589872560879299
-0.4865667822187447	-0.07210012723142582
-0.4865057470624947	-0.048004048460923945
-0.4864447119062447	-0.023697222102390034
-0.4863836767499947	0.0007328014551473719
-0.4863226415937447	0.025197998929239743
-0.4862616064374947	0.04961016160694426
-0.4862005712812447	0.07388118981639158
-0.4861395361249947	0.09792348409887694
-0.4860785009687447	0.1216501865906208
-0.4860174658124947	0.14497553738056843
-0.4859564306562447	0.16781518303518933
-0.4858953954999947	0.1900864559506704
-0.4858343603437447	0.2117087390174023
-0.4857733251874947	0.23260365618430137
-0.4857122900312447	0.2526954612984671
-0.4856512548749947	0.27191124539240197
-0.4855902197187447	0.2901812297456449
-0.4855291845624947	0.30743902906969156
-0.4854681494062447	0.32362185863682325
-0.4854071142499947	0.3386707951747556
-0.4853460790937447	0.3525309907865677
-0.4852850439374947	0.36515186548155226
-0.4852240087812447	0.3764872584172819
-0.4851629736249947	0.38649569708925163
-0.4851019384687447	0.3951404277860624
-0.4850409033124947	0.4023896233466015
-0.4849798681562447	0.4082165106973845
-0.4849188329999947	0.412599413522944
-0.4848577978437447	0.415521894793125
-0.4847967626874947	0.41697276153040885
-0.4847357275312447	0.4169461640237769
-0.4846746923749947	0.41544158225064953
-0.4846136572187447	0.41246383289328437
-0.4845526220624947	0.40802308020049516
-0.4844915869062447	0.4021347719795973
-0.4844305517499947	0.3948196051377786
-0.4843695165937447	0.386103445726242
-0.4843084814374947	0.37601723723944713
-0.4842474462812447	0.3645969010279631
-0.4841864111249947	0.3518831923240717
-0.4841253759687447	0.3379215646447781
-0.4840643408124947	0.3227620141544288
-0.4840033056562447	0.3064588827420605
-0.4839422704999947	0.28907066602047987
-0.4838812353437447	0.2706598419762567
-0.4838202001874947	0.25129257546046685
-0.4837591650312447	0.2310385246964943
-0.4836981298749947	0.20997063333125648
-0.4836370947187447	0.18816473060467315
-0.4835760595624947	0.16569941554871814
-0.4835150244062447	0.1426556956571038
-0.4834539892499947	0.11911664493820703
-0.4833929540937447	0.095167228193308
-0.4833319189374947	0.07089388504821711
-0.4832708837812447	0.046384262221853836
-0.4832098486249947	0.021726886825899967
-0.4831488134687447	-0.0029891462268934296
-0.4830877783124947	-0.02767450338426349
-0.4830267431562447	-0.05223995025344948
-0.4829657079999947	-0.07659663113272933
-0.4829046728437447	-0.10065647640580794
-0.4828436376874947	-0.12433243003113795
-0.4827826025312447	-0.14753879264209066
-0.4827215673749947	-0.1701916250518729
-0.4826605322187447	-0.1922088920718087
-0.4825994970624947	-0.21351086006653805
-0.4825384619062447	-0.2340204532136032
-0.4824774267499947	-0.2536633674706659
-0.4824163915937447	-0.2723684353742359
-0.4823553564374947	-0.29006796272688334
-0.4822943212812447	-0.3066978156031635
-0.4822332861249947	-0.3221977517304787
-0.4821722509687447	-0.33651165820498025
-0.4821112158124947	-0.3495876866359855
-0.4820501806562447	-0.36137851401507304
-0.4819891454999947	-0.37184144911458655
-0.4819281103437447	-0.3809386419798715
-0.4818670751874947	-0.3886372340995648
-0.4818060400312447	-0.39490941018669573
-0.4817450048749947	-0.39973254742987113
-0.4816839697187447	-0.4030893395721735
-0.4816229345624947	-0.40496778550775414
-0.4815618994062447	-0.40536125713786897
-0.4815008642499947	-0.4042685803196936
-0.4814398290937447	-0.40169397067648205
-0.4813787939374947	-0.39764704327810274
-0.4813177587812447	-0.3921428124770005
-0.4812567236249947	-0.38520159098663376
-0.4811956884687447	-0.3768489411871519
-0.4811346533124947	-0.36711560173503077
-0.4810736181562447	-0.35603732560951273
-0.4810125829999947	-0.3436548190608602
-0.4809515478437447	-0.3300135396190726
-0.4808905126874947	-0.31516354555418824
-0.4808294775312447	-0.29915936283629674
-0.4807684423749947	-0.2820596931486639
-0.4807074072187447	-0.2639272895575598
-0.4806463720624947	-0.24482870651920516
-0.4805853369062447	-0.2248340038333699
-0.4805243017499947	-0.2040165753863349
-0.4804632665937447	-0.18245284094467032
-0.4804022314374947	-0.16022191649738285
-0.4803411962812447	-0.13740546825344113
-0.4802801611249947	-0.11408726626615008
-0.4802191259687447	-0.09035291954636798
-0.4801580908124947	-0.06628967358470562
-0.4800970556562447	-0.04198590501604567
-0.4800360204999947	-0.017530956451301857
-0.4799749853437447	0.006985279772577102
-0.4799139501874947	0.03147263452560291
-0.4798529150312447	0.05584102700474332
-0.4797918798749947	0.08000083104550403
-0.4797308447187447	0.10386304127188138
-0.4796698095624947	0.1273398498405202
-0.4796087744062447	0.15034476754641404
-0.4795477392499947	0.17279294441023935
-0.4794867040937447	0.1946016865560678
-0.4794256689374947	0.21569051380076218
-0.4793646337812447	0.2359815419646877
-0.4793035986249947	0.2553998875923442
-0.4792425634687447	0.27387374698147215
-0.4791815283124947	0.2913347750639301
-0.4791204931562447	0.3077183694741335
-0.4790594579999947	0.32296377656394704
-0.4789984228437447	0.3370144571162108
-0.4789373876874947	0.349818221613494
-0.4788763525312447	0.36132740835950605
-0.4788153173749947	0.37149912269037166
-0.4787542822187447	0.38029534655192937
-0.4786932470624947	0.3876830971854347
-0.4786322119062447	0.39363454565413136
-0.4785711767499947	0.39812713796199756
-0.4785101415937447	0.40114365585874706
-0.4784491064374947	0.4026722947177919
-0.4783880712812447	0.4027067148754006
-0.4783270361249947	0.40124606002350893
-0.4782660009687447	0.3982949618060448
-0.4782049658124947	0.3938635304954719
-0.4781439306562447	0.38796732266166833
-0.4780828954999947	0.38062727756897663
-0.4780218603437447	0.37186965287574675
-0.4779608251874947	0.361725924254762
-0.4778997900312447	0.35023268010115566
-0.4778387548749947	0.33743147806217877
-0.4777777197187447	0.32336870768511977
-0.4777166845624947	0.30809541167817944
-0.4776556494062447	0.2916671248461788
-0.4775946142499947	0.2741436252135393
-0.4775335790937447	0.2555887588058805
-0.4774725439374947	0.23607022403294436
-0.4774115087812447	0.21565922690463096
-0.4773504736249947	0.19443037045334705
-0.4772894384687447	0.1724612519909639
-0.4772284033124947	0.1498322190052696
-0.4771673681562447	0.12662616061316162
-0.4771063329999947	0.10292802774713415
-0.4770452978437447	0.0788247122122733
-0.4769842626874947	0.054404612717677714
-0.4769232275312447	0.029757290893385226
-0.4768621923749947	0.004973293392506792
-0.4768011572187447	-0.019856372118142295
-0.4767401220624947	-0.04464045405587818
-0.4766790869062447	-0.06928776963914725
-0.4766180517499947	-0.0937076951889867
-0.4765570165937447	-0.1178102810415998
-0.4764959814374947	-0.14150672856312005
-0.4764349462812447	-0.16470977704428505
-0.4763739111249947	-0.18733376897480217
-0.4763128759687447	-0.20929524997527835
-0.4762518408124947	-0.23051311792410237
-0.4761908056562447	-0.2509089377770708
-0.4761297704999947	-0.2704073237752863
-0.4760687353437447	-0.28893602171427035
-0.4760077001874947	-0.30642644584559314
-0.4759466650312447	-0.3228137103411886
-0.4758856298749947	-0.33803692073420316
-0.4758245947187447	-0.35203953051068
-0.4757635595624947	-0.3647693496062453
-0.4757025244062447	-0.376178885690224
-0.4756414892499947	-0.3862254794262021
-0.4755804540937447	-0.3948714397033008
-0.4755194189374947	-0.4020842145605674
-0.4754583837812447	-0.40783649807036965
-0.4753973486249947	-0.41210635071237267
-0.4753363134687447	-0.41487726307949047
-0.4752752783124947	-0.4161382282858253
-0.4752142431562447	-0.41588378505535056
-0.4751532079999947	-0.41411405264102685
-0.4750921728437447	-0.41083470762683544
-0.4750311376874947	-0.40605698641822363
-0.4749701025312447	-0.39979764957352115
-0.4749090673749947	-0.39207889486336434
-0.4748480322187447	-0.38292832732754406
-0.4747869970624947	-0.37237880151809444
-0.4747259619062447	-0.3604683477594741
-0.4746649267499947	-0.3472400470399053
-0.4746038915937447	-0.33274178148799666
-0.4745428564374947	-0.3170261941497423
-0.4744818212812447	-0.30015042370054573
-0.4744207861249947	-0.28217584533055035
-0.4743597509687447	-0.2631679793901575
-0.4742987158124947	-0.24319615747493067
-0.4742376806562447	-0.222333244712318
-0.4741766454999947	-0.20065547780816753
-0.4741156103437447	-0.17824212879239043
-0.4740545751874947	-0.15517513865007343
-0.4739935400312447	-0.13153896264721862
-0.4739325048749947	-0.10742022030498083
-0.4738714697187447	-0.08290719609734101
-0.4738104345624947	-0.0580898135972214
-0.4737493994062447	-0.03305915880761516
-0.4736883642499947	-0.007906972512087168
-0.4736273290937447	0.017274327273049544
-0.4735662939374947	0.042392239032758905
-0.4735052587812447	0.06735453015469295
-0.4734442236249947	0.09206940303510314
-0.4733831884687447	0.11644595881483517
-0.4733221533124947	0.14039456927138655
-0.4732611181562447	0.16382707643770528
-0.4732000829999947	0.18665717745873386
-0.4731390478437447	0.20880086388610633
-0.4730780126874947	0.23017651260843067
-0.4730169775312447	0.25070531563265314
-0.4729559423749947	0.2703116367241832
-0.4728949072187447	0.28892313081747695
-0.4728338720624947	0.3064710992356187
-0.4727728369062447	0.32289080893922156
-0.4727118017499947	0.33812158329148373
-0.4726507665937447	0.35210714562808976
-0.4725897314374947	0.36479582358052515
-0.4725286962812447	0.3761406343107099
-0.4724676611249947	0.38609961861092224
-0.4724066259687447	0.3946358725176257
-0.4723455908124947	0.4017177251180647
-0.4722845556562447	0.40731890818085625
-0.4722235204999947	0.4114185620086535
-0.4721624853437447	0.4140013893668627
-0.4721014501874947	0.4150576975915595
-0.4720404150312447	0.4145834076380795
-0.4719793798749947	0.4125801088162968
-0.4719183447187447	0.40905504020423866
-0.4718573095624947	0.4040210598410395
-0.4717962744062447	0.3974966135368502
-0.4717352392499947	0.38950565892590283
-0.4716742040937447	0.3800775867818151
-0.4716131689374947	0.36924711087614864
-0.4715521337812447	0.3570541343351944
-0.4714910986249947	0.34354362649917447
-0.4714300634687447	0.3287654392756537
-0.4713690283124947	0.3127741210602754
-0.4713079931562447	0.29562874836963565
-0.4712469579999947	0.2773926643614091
-0.4711859228437447	0.2581332828558755
-0.4711248876874947	0.23792183374613812
-0.4710638525312447	0.21683307178010128
-0.4710028173749947	0.19494504612868047
-0.4709417822187447	0.17233878722582435
-0.4708807470624947	0.14909799874403362
-0.4708197119062447	0.12530877735473023
-0.4707586767499947	0.10105928057471078
-0.4706976415937447	0.07643937153298921
-0.4706366064374947	0.05154035418482777
-0.4705755712812447	0.02645457471105119
-0.4705145361249947	0.0012750894805005416
-0.4704535009687447	-0.02390462178965416
-0.4703924658124947	-0.04899109950192103
-0.4703314306562447	-0.07389119453488863
-0.4702703954999947	-0.09851236761961171
-0.4702093603437447	-0.12276313059437911
-0.4701483251874947	-0.1465533645620479
-0.4700872900312447	-0.1697945333621309
-0.4700262548749947	-0.19240020091539148
-0.4699652197187447	-0.21428627619729873
-0.4699041845624947	-0.23537116793132112
-0.4698431494062447	-0.2555764016521125
-0.4697821142499947	-0.2748266871879948
-0.4697210790937447	-0.29305016117616206
