Time	Frequency
-0.5000479372500024	1.3730164767312698e-24
-0.4999869020937524	1.3553815651879566e-24
-0.4999258669375024	1.3331499780923421e-24
-0.4998648317812524	1.3063946867840075e-24
-0.4998037966250024	1.2752038068428422e-24
-0.4997427614687524	1.2396801910336556e-24
-0.4996817263125024	1.1999411001293556e-24
-0.4996206911562524	1.1561179856113178e-24
-0.4995596560000024	1.1083558338203982e-24
-0.4994986208437524	1.0568127753317995e-24
-0.4994375856875024	1.0016597064752446e-24
-0.4993765505312524	9.430795376459967e-25
-0.4993155153750024	8.812665777399387e-25
-0.4992544802187524	8.164261912993352e-25
-0.4991934450625024	7.487737226389696e-25
-0.4991324099062524	6.78534062115772e-25
-0.4990713747500024	6.059408221603249e-25
-0.4990103395937524	5.312355235385022e-25
-0.4989493044375024	4.546669741464481e-25
-0.4988882692812524	3.764900448572308e-25
-0.4988272341250024	2.9696538993560767e-25
-0.4987661989687524	2.163581482983148e-25
-0.4987051638125024	1.3493717291833307e-25
-0.4986441286562524	5.297427818782245e-26
-0.4985830935000024	-2.925682066055075e-26
-0.4985220583437524	-1.1148137028267966e-25
-0.4984610231875024	-1.9342444204496167e-25
-0.4983999880312524	-2.7481185907270515e-25
-0.4983389528750024	-3.5537124050094897e-25
-0.4982779177187524	-4.348326016509667e-25
-0.4982168825625024	-5.129296579633869e-25
-0.4981558474062524	-5.89400352407638e-25
-0.4980948122500024	-6.639878949248568e-25
-0.4980337770937524	-7.364416695240468e-25
-0.4979727419375024	-8.065178694928031e-25
-0.4979117067812524	-8.739805896420442e-25
-0.4978506716250024	-9.386023627306112e-25
-0.4977896364687524	-1.0001650084492044e-24
-0.4977286013125024	-1.0584604535640066e-24
-0.4976675661562524	-1.1132913071900658e-24
-0.4976065310000024	-1.1644715592728896e-24
-0.4975454958437524	-1.211827225173512e-24
-0.4974844606875024	-1.2551968892265316e-24
-0.4974234255312524	-1.2944323766616031e-24
-0.4973623903750024	-1.329399022224859e-24
-0.4973013552187524	-1.3599763188643512e-24
-0.4972403200625024	-1.386058352331629e-24
-0.4971792849062524	-1.407553891954613e-24
-0.4971182497500024	-1.4243870255307002e-24
-0.4970572145937524	-1.43649729688786e-24
-0.4969961794375024	-1.443839779269749e-24
-0.4969351442812524	-1.446385457942964e-24
-0.4968741091250024	-1.4441212409819958e-24
-0.4968130739687524	-1.4370499436715105e-24
-0.4967520388125024	-1.4251903777679264e-24
-0.4966910036562524	-1.4085773189584214e-24
-0.4966299685000024	-1.387261304907014e-24
-0.4965689333437524	-1.3613085196879913e-24
-0.4965078981875024	-1.3308006824899978e-24
-0.4964468630312524	-1.2958345752557377e-24
-0.4963858278750024	-1.2565219316963112e-24
-0.4963247927187524	-1.2129890043663105e-24
-0.4962637575625024	-1.1653760637178648e-24
-0.4962027224062524	-1.1138371354370475e-24
-0.4961416872500024	-1.0585392910490079e-24
-0.4960806520937524	-9.996622326759827e-25
-0.4960196169375024	-9.373977005430136e-25
-0.4959585817812524	-8.719487438209672e-25
-0.4958975466250024	-8.035291131909972e-25
-0.4958365114687524	-7.323626748565897e-25
-0.4957754763125024	-6.586824709413284e-25
-0.4957144411562524	-5.827299413440268e-25
-0.4956534060000024	-5.047545117599854e-25
-0.4955923708437524	-4.250122111011668e-25
-0.4955313356875024	-3.437651340103418e-25
-0.4954703005312524	-2.6128076039006776e-25
-0.4954092653750024	-1.778305408036762e-25
-0.4953482302187524	-9.368950458706313e-26
-0.4952871950625024	-9.135089672111271e-27
-0.4952261599062524	7.555373570939337e-26
-0.4951651247500024	1.6009736489738897e-25
-0.4951040895937524	2.442165432049462e-25
-0.4950430544375024	3.276331541243489e-25
-0.4949820192812524	4.1007140389835247e-25
-0.4949209841250024	4.912584327299089e-25
-0.4948599489687524	5.7092544000916035e-25
-0.4947989138125024	6.488085435097228e-25
-0.4947378786562524	7.246495073207293e-25
-0.4946768435000024	7.98196878383009e-25
-0.4946158083437524	8.692066160193885e-25
-0.4945547731875024	9.374428010720035e-25
-0.4944937380312524	1.0026789151976405e-24
-0.4944327028750024	1.0646980434006777e-24
-0.4943716677187524	1.1232937009171117e-24
-0.4943106325625024	1.1782710745458497e-24
-0.4942495974062524	1.2294468773647599e-24
-0.4941885622500024	1.2766504348446766e-24
-0.4941275270937524	1.319724304178926e-24
-0.4940664919375024	1.3585244882798358e-24
-0.4940054567812524	1.3929212109113664e-24
-0.4939444216250024	1.422799211850768e-24
-0.4938833864687524	1.448058150376141e-24
-0.4938223513125024	1.4686130075064791e-24
-0.4937613161562524	1.484394342945992e-24
-0.4937002810000024	1.4953484595299478e-24
-0.4936392458437524	1.501437717394447e-24
-0.4935782106875024	1.5026406224103786e-24
-0.4935171755312524	1.4989518294227453e-24
-0.4934561403750024	1.4903822672644493e-24
-0.4933951052187524	1.4769590911830969e-24
-0.4933340700625024	1.458725527876154e-24
-0.4932730349062524	1.4357408338480572e-24
-0.4932119997500024	1.4080800724493391e-24
-0.4931509645937524	1.3758337869423516e-24
-0.4930899294375024	1.3391079112797393e-24
-0.4930288942812524	1.2980231733684588e-24
-0.4929678591250024	1.2527148382331762e-24
-0.4929068239687524	1.2033323816155329e-24
-0.4928457888125024	1.150038638791168e-24
-0.4927847536562524	1.09300965311763e-24
-0.4927237185000024	1.0324339467285916e-24
-0.4926626833437524	9.685117122510543e-25
-0.4926016481875024	9.014545227448455e-25
-0.4925406130312524	8.314843171373537e-25
-0.4924795778750024	7.58832801028441e-25
-0.4924185427187524	6.837406727925773e-25
-0.4923575075625024	6.06456701218357e-25
-0.4922964724062524	5.272372754641138e-25
-0.4922354372500024	4.463449207409362e-25
-0.4921744020937524	3.6404797528463276e-25
-0.4921133669375024	2.8061964498541447e-25
-0.4920523317812524	1.963365958985524e-25
-0.4919912966250024	1.1147874390462707e-25
-0.4919302614687524	2.632774396472659e-26
-0.4918692263125024	-5.883363672355407e-26
-0.4918081911562524	-1.4372255746022805e-25
-0.4917471560000024	-2.280570854071334e-25
-0.4916861208437524	-3.11556954197814e-25
-0.4916250856875024	-3.9394496685111415e-25
-0.4915640505312524	-4.7494716069599575e-25
-0.4915030153750024	-5.54294435405666e-25
-0.4914419802187524	-6.317233509929315e-25
-0.4913809450625024	-7.069762772532372e-25
-0.4913199099062524	-7.798033885281871e-25
-0.4912588747500024	-8.499627313263805e-25
-0.4911978395937524	-9.17221067498625e-25
-0.4911368044375024	-9.813551635873354e-25
-0.4910757692812524	-1.042151848216041e-24
-0.4910147341250024	-1.099409454974393e-24
-0.4909536989687524	-1.1529378708048997e-24
-0.4908926638125024	-1.2025594046303989e-24
-0.4908316286562524	-1.2481097946506202e-24
-0.4907705935000024	-1.2894379498897288e-24
-0.4907095583437524	-1.3264071105772968e-24
-0.4906485231875024	-1.35889517684024e-24
-0.4905874880312524	-1.386794889682728e-24
-0.4905264528750024	-1.4100144145314637e-24
-0.4904654177187524	-1.4284776375421675e-24
-0.4904043825625024	-1.4421243674616558e-24
-0.4903433474062524	-1.4509104971432946e-24
-0.4902823122500024	-1.4548082875845419e-24
-0.4902212770937524	-1.4538063951562378e-24
-0.4901602419375024	-1.447909874629784e-24
-0.4900992067812524	-1.4371402407561231e-24
-0.4900381716250024	-1.421535394057623e-24
-0.4899771364687524	-1.4011494312364372e-24
-0.4899161013125024	-1.3760525377261923e-24
-0.4898550661562524	-1.346330764936639e-24
-0.4897940310000024	-1.3120856618834572e-24
-0.4897329958437524	-1.273434039026947e-24
-0.4896719606875024	-1.2305075204739624e-24
-0.4896109255312524	-1.1834521504920153e-24
-0.4895498903750024	-1.1324278376958105e-24
-0.4894888552187524	-1.0776078589595184e-24
-0.4894278200625024	-1.0191784232210708e-24
-0.4893667849062524	-9.573377209851803e-25
-0.4893057497500024	-8.92295553384902e-25
-0.4892447145937524	-8.242726336565856e-25
-0.4891836794375024	-7.534995684245941e-25
-0.4891226442812524	-6.802163412930833e-25
-0.4890616091250024	-6.046715322085119e-25
-0.4890005739687524	-5.271212456274481e-25
-0.4889395388125024	-4.478284254269861e-25
-0.4888785036562524	-3.6706207084181248e-25
-0.4888174685000024	-2.8509600491339893e-25
-0.4887564333437524	-2.0220830041495973e-25
-0.4886953981875024	-1.186801561815127e-25
-0.4886343630312524	-3.4794931663926287e-26
-0.4885733278750024	4.916260094738154e-26
-0.4885122927187524	1.3290754647247e-25
-0.4884512575625024	2.161554916691818e-25
-0.4883902224062524	2.9862373167745906e-25
-0.4883291872500024	3.800321088416807e-25
-0.4882681520937524	4.601039011847173e-25
-0.4882071169375024	5.385669598137476e-25
-0.4881460817812524	6.151543710871353e-25
-0.4880850466250024	6.896055553079193e-25
-0.4880240114687524	7.616670825210758e-25
-0.4879629763125024	8.31093437122711e-25
-0.4879019411562524	8.976480605399359e-25
-0.4878409060000024	9.611040058443527e-25
-0.4877798708437524	1.0212445710217615e-24
-0.4877188356875024	1.0778644848849529e-24
-0.4876578005312524	1.1307700658053966e-24
-0.4875967653750024	1.1797802077981054e-24
-0.4875357302187524	1.2247270433351425e-24
-0.4874746950625024	1.2654561581819206e-24
-0.4874136599062524	1.3018276293218282e-24
-0.4873526247500024	1.333715962554792e-24
-0.4872915895937524	1.3610109669705667e-24
-0.4872305544375024	1.3836180127969738e-24
-0.4871695192812524	1.4014580043317741e-24
-0.4871084841250024	1.414468311768874e-24
-0.4870474489687524	1.4226024949760805e-24
-0.4869864138125024	1.4258304516971205e-24
-0.4869253786562524	1.424138956165128e-24
-0.4868643435000024	1.4175313002865643e-24
-0.4868033083437524	1.4060273808477376e-24
-0.4867422731875024	1.3896638199818499e-24
-0.4866812380312524	1.368493662054838e-24
-0.4866202028750024	1.3425862174885012e-24
-0.4865591677187524	1.3120269822273227e-24
-0.4864981325625024	1.2769172018359496e-24
-0.4864370974062524	1.2373735534833405e-24
-0.4863760622500024	1.1935279426180568e-24
-0.4863150270937524	1.145526758140871e-24
-0.4862539919375024	1.0935306421798814e-24
-0.4861929567812524	1.0377139358940615e-24
-0.4861319216250024	9.782638244970554e-25
-0.4860708864687524	9.153801101956604e-25
-0.4860098513125024	8.492742976818363e-25
-0.4859488161562524	7.801688189196792e-25
-0.4858877810000024	7.082966200826729e-25
-0.4858267458437524	6.33899985553532e-25
-0.4857657106875024	5.572299298950666e-25
-0.4857046755312524	4.785454415812808e-25
-0.4856436403750024	3.9811237822598207e-25
-0.4855826052187524	3.1620274202481764e-25
-0.4855215700625024	2.3309365092021143e-25
-0.4854605349062524	1.4906662513277658e-25
-0.4853994997500024	6.44063123662213e-26
-0.4853384645937524	-2.0600318066467586e-26
-0.4852774294375024	-1.0566471793562417e-25
-0.4852163942812524	-1.9049818830228112e-25
-0.4851553591250024	-2.748125419572987e-25
-0.4850943239687524	-3.583210617072514e-25
-0.4850332888125024	-4.4073970323834515e-25
-0.4849722536562524	-5.2178783598575155e-25
-0.4849112185000024	-6.011893068327248e-25
-0.4848501833437524	-6.786733839535315e-25
-0.4847891481875024	-7.539754742938228e-25
-0.4847281130312524	-8.268384654095918e-25
-0.4846670778750024	-8.970131149272712e-25
-0.4846060427187524	-9.642591070374556e-25
-0.4845450075625024	-1.0283460592008915e-24
-0.4844839724062524	-1.0890538375179297e-24
-0.4844229372500024	-1.1461738900985155e-24
-0.4843619020937524	-1.1995094704720295e-24
-0.4843008669375024	-1.2488764524967465e-24
-0.4842398317812524	-1.2941043037027946e-24
-0.4841787966250024	-1.3350360187083719e-24
-0.4841177614687524	-1.3715292256890658e-24
-0.4840567263125024	-1.4034565111262153e-24
-0.4839956911562524	-1.4307055924149655e-24
-0.4839346560000024	-1.4531802006713976e-24
-0.4838736208437524	-1.4707999709442541e-24
-0.4838125856875024	-1.483500946638637e-24
-0.4837515505312524	-1.4912358315731462e-24
-0.4836905153750024	-1.4939739830605817e-24
-0.4836294802187524	-1.4917017177887164e-24
-0.4835684450625024	-1.4844222521803852e-24
-0.4835074099062524	-1.4721557428461569e-24
-0.4834463747500024	-1.4549392115411612e-24
-0.4833853395937524	-1.4328264595623304e-24
-0.4833243044375024	-1.4058878619498828e-24
-0.4832632692812524	-1.3742101616863067e-24
-0.4832022341250024	-1.337896160341401e-24
-0.4831411989687524	-1.2970644482131792e-24
-0.4830801638125024	-1.2518489049883765e-24
-0.4830191286562524	-1.2023983084300397e-24
-0.4829580935000024	-1.1488759683290518e-24
-0.4828970583437524	-1.0914588474968245e-24
-0.4828360231875024	-1.0303373429755443e-24
-0.4827749880312524	-9.657145055882371e-25
-0.4827139528750024	-8.978051858928448e-25
-0.4826529177187524	-8.26835606427146e-25
-0.4825918825625024	-7.530424286993426e-25
-0.4825308474062524	-6.766719967426278e-25
-0.4824698122500024	-5.979794385881428e-25
-0.4824087770937524	-5.172280230591085e-25
-0.4823477419375024	-4.346880199850786e-25
-0.4822867067812524	-3.5063583524959603e-25
-0.4822256716250024	-2.6535334475864002e-25
-0.4821646364687524	-1.7912649818925643e-25
-0.4821036013125024	-9.224473333168885e-26
-0.4820425661562524	-4.999858145966278e-27
-0.4819815310000024	8.231508872726728e-26
-0.4819204958437524	1.6940642853976966e-25
-0.4818594606875024	2.5598137577313926e-25
-0.4817984255312524	3.417485769496506e-25
-0.4817373903750024	4.264192029209439e-25
-0.4816763552187524	5.097082698148798e-25
-0.4816153200625024	5.913349801102045e-25
-0.4815542849062524	6.710243210342827e-25
-0.4814932497500024	7.485075493216587e-25
-0.4814322145937524	8.235232830156578e-25
-0.4813711794375024	8.958184872691318e-25
-0.4813101442812524	9.651489638066651e-25
-0.4812491091250024	1.0312807419798616e-24
-0.4811880739687524	1.0939904132979193e-24
-0.4811270388125024	1.1530660181204794e-24
-0.4810660036562524	1.2083079009224936e-24
-0.4810049685000024	1.2595293117240928e-24
-0.4809439333437524	1.3065569794869083e-24
-0.4808828981875024	1.3492317189219504e-24
-0.4808218630312524	1.38740914471379e-24
-0.4807608278750024	1.4209600115129383e-24
-0.4806997927187524	1.4497705674080574e-24
-0.4806387575625024	1.4737432282829756e-24
-0.4805777224062524	1.4927967405798948e-24
-0.4805166872500024	1.5068663476152938e-24
-0.4804556520937524	1.5159043440349354e-24
-0.4803946169375024	1.5198799407959313e-24
-0.4803335817812524	1.5187794820417296e-24
-0.4802725466250024	1.5126066008494853e-24
-0.4802115114687524	1.5013820360921163e-24
-0.4801504763125024	1.4851436834370597e-24
-0.4800894411562524	1.4639464865384534e-24
-0.4800284060000024	1.4378621437760365e-24
-0.4799673708437524	1.4069790085733e-24
-0.4799063356875024	1.3714017274548906e-24
-0.4798453005312524	1.3312508304871952e-24
-0.4797842653750024	1.2866625075217373e-24
-0.4797232302187524	1.2377879337864219e-24
-0.4796621950625024	1.1847929137932092e-24
-0.4796011599062524	1.127857324221759e-24
-0.4795401247500024	1.0671743371871992e-24
-0.4794790895937524	1.0029499988648825e-24
-0.4794180544375024	9.354024467179137e-25
-0.4793570192812524	8.647609839467378e-25
-0.4792959841250024	7.912656453197421e-25
-0.4792349489687524	7.151661770108024e-25
-0.4791739138125024	6.367211377383031e-25
-0.4791128786562524	5.561972170844549e-25
-0.4790518435000024	4.738680883586681e-25
-0.4789908083437524	3.900138118941723e-25
-0.4789297731875024	3.0491943376566762e-25
-0.4788687380312524	2.188744038699406e-25
-0.4788077028750024	1.321715840006162e-25
-0.4787466677187524	4.510579987244777e-26
-0.4786856325625024	-4.202657368800252e-26
-0.4786245974062524	-1.289289911556965e-25
-0.4785635622500024	-2.1530565420234777e-25
-0.4785025270937524	-3.008625492224799e-25
-0.4784414919375024	-3.853083090288747e-25
-0.4783804567812524	-4.683553230611197e-25
-0.4783194216250024	-5.497209509444187e-25
-0.4782583864687524	-6.291278686827525e-25
-0.4781973513125024	-7.063056635363097e-25
-0.4781363161562524	-7.8099153548906015e-25
-0.4780752810000024	-8.529308376748058e-25
-0.4780142458437524	-9.21878615881531e-25
-0.4779532106875024	-9.875999932387893e-25
-0.4778921755312524	-1.0498709200983966e-24
-0.4778311403750024	-1.1084793017096334e-24
-0.4777701052187524	-1.1632255416369384e-24
-0.4777090700625024	-1.2139230073154628e-24
-0.4776480349062524	-1.2603991149544695e-24
-0.4775869997500024	-1.30249562262989e-24
-0.4775259645937524	-1.3400690999602456e-24
-0.4774649294375024	-1.372991853716636e-24
-0.4774038942812524	-1.4011518645417165e-24
-0.4773428591250024	-1.4244534437143954e-24
-0.4772818239687524	-1.4428176125357649e-24
-0.4772207888125024	-1.4561822180939642e-24
-0.4771597536562524	-1.4645022014753823e-24
-0.4770987185000024	-1.467749839340876e-24
-0.4770376833437524	-1.4659148004772446e-24
-0.4769766481875024	-1.4590040809943264e-24
-0.4769156130312524	-1.4470421732287384e-24
-0.4768545778750024	-1.430070881572275e-24
-0.4767935427187524	-1.4081491499420662e-24
-0.4767325075625024	-1.3813529643896502e-24
-0.4766714724062524	-1.349775081283731e-24
-0.4766104372500024	-1.3135245813189959e-24
-0.4765494020937524	-1.2727267360975047e-24
-0.4764883669375024	-1.2275223993655207e-24
-0.4764273317812524	-1.1780675395190372e-24
-0.4763662966250024	-1.1245328733567902e-24
-0.4763052614687524	-1.0671030828388606e-24
-0.4762442263125024	-1.0059763363657682e-24
-0.4761831911562524	-9.413635039313168e-25
-0.4761221560000024	-8.734875730198066e-25
-0.4760611208437524	-8.025827252422382e-25
-0.4760000856875024	-7.288936189908331e-25
-0.4759390505312524	-6.526747279982507e-25
-0.4758780153750024	-5.741890248709763e-25
-0.4758169802187524	-4.937075948689187e-25
-0.4757559450625024	-4.1150839908371574e-25
-0.4756949099062524	-3.2787521204561675e-25
-0.4756338747500024	-2.43097291833603e-25
-0.4755728395937524	-1.574674245212585e-25
-0.4755118044375024	-7.128162718298317e-26
-0.4754507692812524	1.5161816955081272e-26
-0.4753897341250024	1.0156410191914143e-25
-0.4753286989687524	1.876260463669109e-25
-0.4752676638125024	2.730497736739236e-25
-0.4752066286562524	3.5753944625259063e-25
-0.4751455935000024	4.408021352322672e-25
-0.4750845583437524	5.225493924009616e-25
-0.4750235231875024	6.024975351646754e-25
-0.4749624880312524	6.803690221425017e-25
-0.4749014528750024	7.558936656753911e-25
-0.4748404177187524	8.288087947205892e-25
-0.4747793825625024	8.988608224442478e-25
-0.4747183474062524	9.658061113257609e-25
-0.4746573122500024	1.0294112257245053e-24
-0.4745962770937524	1.0894544494576384e-24
-0.4745352419375024	1.1457261506083185e-24
-0.4744742067812524	1.1980295281415785e-24
-0.4744131716250024	1.2461814748634827e-24
-0.4743521364687524	1.2900130297484524e-24
-0.4742911013125024	1.3293701141781569e-24
-0.4742300661562524	1.3641139125890115e-24
-0.4741690310000024	1.3941215358907135e-24
-0.4741079958437524	1.4192863113164956e-24
-0.4740469606875024	1.4395182221253183e-24
-0.4739859255312524	1.4547442324394927e-24
-0.4739248903750024	1.4649084981574105e-24
-0.4738638552187524	1.4699726435128983e-24
-0.4738028200625024	1.4699158220173764e-24
-0.4737417849062524	1.464734865174047e-24
-0.4736807497500024	1.4544442742112471e-24
-0.4736197145937524	1.4390761533112268e-24
-0.4735586794375024	1.418680181055754e-24
-0.4734976442812524	1.3933233851926303e-24
-0.4734366091250024	1.3630899064237295e-24
-0.4733755739687524	1.3280808495692836e-24
-0.4733145388125024	1.2884137598317988e-24
-0.4732535036562524	1.2442223320547375e-24
-0.4731924685000024	1.1956560347250383e-24
-0.4731314333437524	1.142879361160286e-24
-0.4730703981875024	1.0860715575144481e-24
-0.4730093630312524	1.0254259070535032e-24
-0.4729483278750024	9.611488345229413e-25
-0.4728872927187524	8.934596682374512e-25
-0.4728262575625024	8.225895566800461e-25
-0.4727652224062524	7.487806477788965e-25
-0.4727041872500024	6.7228554586974535e-25
-0.4726431520937524	5.933661909770435e-25
-0.4725821169375024	5.1229309980150835e-25
-0.4725210817812524	4.293442663217408e-25
-0.4724600466250024	3.448044680987475e-25
-0.4723990114687524	2.589642053729641e-25
-0.4723379763125024	1.7211831803732043e-25
-0.4722769411562524	8.456571403878597e-26
-0.4722159060000024	-3.392213992331634e-27
-0.4721548708437524	-9.145275856804212e-26
-0.4720938356875024	-1.7931219284449275e-25
-0.4720328005312524	-2.6666755248685137e-25
-0.4719717653750024	-3.5321745843884924e-25
-0.4719107302187524	-4.38663009004722e-25
-0.4718496950625024	-5.227088874808296e-25
-0.4717886599062524	-6.050644710084064e-25
-0.4717276247500024	-6.854448773197685e-25
