Time	Frequency
-0.500042208531255	0.283090951503552
-0.49998117337500503	0.30028252910326003
-0.49992013821875503	0.31641732893216257
-0.49985910306250503	0.331435701597628
-0.49979806790625503	0.34528201131344416
-0.49973703275000503	0.35790485434939256
-0.49967599759375503	0.36925724091403794
-0.49961496243750503	0.37929674873854347
-0.49955392728125503	0.3879857168961675
-0.49949289212500503	0.3952913783307749
-0.49943185696875503	0.4011859376074771
-0.49937082181250503	0.405646739900857
-0.49930978665625503	0.40865632296451504
-0.49924875150000503	0.4102024676357223
-0.49918771634375503	0.4102782882833175
-0.49912668118750503	0.4088822296797771
-0.49906564603125503	0.40601807568793846
-0.49900461087500503	0.4016949585035139
-0.49894357571875503	0.3959273131082232
-0.49888254056250503	0.38873482795642683
-0.49882150540625503	0.38014239021187496
-0.49876047025000503	0.37017996768366
-0.49869943509375503	0.3588825563946337
-0.49863839993750503	0.3462899880685023
-0.49857736478125503	0.3324468307623967
-0.49851632962500503	0.31740225926500654
-0.49845529446875503	0.3012097637438324
-0.49839425931250503	0.2839271112653616
-0.49833322415625503	0.2656160221556165
-0.49827218900000503	0.2463419642838467
-0.49821115384375503	0.22617400239551297
-0.49815011868750503	0.20518441207255655
-0.49808908353125503	0.18344854872349642
-0.49802804837500503	0.1610444630106248
-0.49796701321875503	0.1380527107620707
-0.49790597806250503	0.11455603767389165
-0.49784494290625503	0.09063895083578212
-0.49778390775000503	0.06638768748943201
-0.49772287259375503	0.04188963113100028
-0.49766183743750503	0.017233067133209684
-0.49760080228125503	-0.007492973436817013
-0.49753976712500503	-0.03219930395700686
-0.49747873196875503	-0.0567967034539822
-0.49741769681250503	-0.08119631392957524
-0.49735666165625503	-0.10531001054961546
-0.49729562650000503	-0.1290506241326017
-0.49723459134375503	-0.15233232446271502
-0.49717355618750503	-0.17507093712095467
-0.49711252103125503	-0.1971842451899062
-0.49705148587500503	-0.21859221377031202
-0.49699045071875503	-0.23921742898248569
-0.49692941556250503	-0.2589852773954754
-0.49686838040625503	-0.27782419014794096
-0.49680734525000503	-0.2956660318085735
-0.49674631009375503	-0.31244626441606466
-0.49668527493750503	-0.32810414419348516
-0.49662423978125503	-0.34258303808308
-0.49656320462500503	-0.3558306415074799
-0.49650216946875503	-0.36779900504037216
-0.49644113431250503	-0.37844491557236914
-0.49638009915625503	-0.3877299792866305
-0.49631906400000503	-0.3956206710459578
-0.49625802884375503	-0.4020886213747487
-0.49619699368750503	-0.40711060458400605
-0.49613595853125503	-0.4106686646989458
-0.49607492337500503	-0.41275019071837477
-0.49601388821875503	-0.4133479413806547
-0.49595285306250503	-0.41246010674316963
-0.49589181790625503	-0.410090279252447
-0.49583078275000503	-0.4062474657549348
-0.49576974759375503	-0.4009460601920439
-0.49570871243750503	-0.3942057701958551
-0.49564767728125503	-0.3860515690070604
-0.49558664212500503	-0.3765136019871002
-0.49552560696875503	-0.36562705463459527
-0.49546457181250503	-0.3534320695039911
-0.49540353665625503	-0.33997356767362524
-0.49534250150000503	-0.32530106314052654
-0.49528146634375503	-0.30946857939856676
-0.49522043118750503	-0.2925343291768262
-0.49515939603125503	-0.27456056664136647
-0.49509836087500503	-0.25561342116429325
-0.49503732571875503	-0.23576247460052657
-0.49497629056250503	-0.21508072901922212
-0.49491525540625503	-0.19364420644321442
-0.49485422025000503	-0.17153162515013787
-0.49479318509375503	-0.14882430500064153
-0.49473214993750503	-0.12560567570962278
-0.49467111478125503	-0.10196103044105077
-0.49461007962500503	-0.07797731863584655
-0.49454904446875503	-0.05374263296633837
-0.49448800931250503	-0.02934603388221365
-0.49442697415625503	-0.004877257449755307
-0.49436593900000503	0.01957386254506215
-0.49430490384375503	0.04391738567448767
-0.49424386868750503	0.06806382913521437
-0.49418283353125503	0.09192447727523932
-0.49412179837500503	0.11541156330776396
-0.49406076321875503	0.13843875411582898
-0.49399972806250503	0.16092139914041478
-0.49393869290625503	0.18277683008858694
-0.49387765775000503	0.20392464394578852
-0.49381662259375503	0.2242871628956464
-0.49375558743750503	0.24378942860618186
-0.49369455228125503	0.26235974531231804
-0.49363351712500503	0.279929881422477
-0.49357248196875503	0.29643515351454636
-0.49351144681250503	0.31181491293040947
-0.49345041165625503	0.3260126145320353
-0.49338937650000503	0.3389760666776895
-0.49332834134375503	0.35065759886770537
-0.49326730618750503	0.3610143256135936
-0.49320627103125503	0.3700082074930828
-0.49314523587500503	0.3776061984986145
-0.49308420071875503	0.3837804737434452
-0.49302316556250503	0.3885084239441769
-0.49296213040625503	0.39177275747092444
-0.49290109525000503	0.39356162553872015
-0.49284006009375503	0.3938686274572644
-0.49277902493750503	0.39269280595597983
-0.49271798978125503	0.3900387177558679
-0.49265695462500503	0.3859163808804558
-0.49259591946875503	0.3803412321456686
-0.49253488431250503	0.37333410115279314
-0.49247384915625503	0.3649211200659581
-0.49241281400000503	0.35513361340809413
-0.49235177884375503	0.344008025575708
-0.49229074368750503	0.33158575383140176
-0.49222970853125503	0.31791298543902985
-0.49216867337500503	0.30304060363344115
-0.49210763821875503	0.2870239007095357
-0.49204660306250503	0.26992243367254004
-0.49198556790625503	0.25179983646836257
-0.49192453275000503	0.23272350294831531
-0.49186349759375503	0.21276438849793539
-0.49180246243750503	0.19199676821335257
-0.49174142728125503	0.17049795389474837
-0.49168039212500503	0.14834792183490295
-0.49161935696875503	0.12562918097499853
-0.49155832181250503	0.10242636709638574
-0.49149728665625503	0.07882586182798984
-0.49143625150000503	0.054915678703578746
-0.49137521634375503	0.030784948056715597
-0.49131418118750503	0.006523652465256532
-0.49125314603125503	-0.01777766777750812
-0.49119211087500503	-0.04202828083943165
-0.49113107571875503	-0.06613762825456124
-0.49107004056250503	-0.09001562872915246
-0.49100900540625503	-0.113572958957518
-0.49094797025000503	-0.13672151989929224
-0.49088693509375503	-0.15937463201725172
-0.49082589993750503	-0.18144739648559544
-0.49076486478125503	-0.20285709232559399
-0.49070382962500503	-0.2235233209777595
-0.49064279446875503	-0.24336843877236133
-0.49058175931250503	-0.2623178571434342
-0.49052072415625503	-0.28030015119127333
-0.49045968900000503	-0.2972475319571506
-0.49039865384375503	-0.31309600360593914
-0.49033761868750503	-0.3277855576110956
-0.49027658353125503	-0.34126048163864087
-0.49021554837500503	-0.3534695325984296
-0.49015451321875503	-0.36436614661448713
-0.49009347806250503	-0.3739085452800903
-0.49003244290625503	-0.3820600054189828
-0.48997140775000503	-0.3887889094816978
-0.48991037259375503	-0.39406888567790327
-0.48984933743750503	-0.39787895056542
-0.48978830228125503	-0.40020352361500744
-0.48972726712500503	-0.4010325475571122
-0.48966623196875503	-0.4003614874580022
-0.48960519681250503	-0.3981913736513062
-0.48954416165625503	-0.39452879826379855
-0.48948312650000503	-0.38938588516456035
-0.48942209134375503	-0.3827802531600595
-0.48936105618750503	-0.3747349661952346
-0.48930002103125503	-0.3652784277732041
-0.48923898587500503	-0.35444429688571916
-0.48917795071875503	-0.342271371694493
-0.48911691556250503	-0.32880341508760597
-0.48905588040625503	-0.3140890499197117
-0.48899484525000503	-0.29818153523691815
-0.48893381009375503	-0.2811385773441901
-0.48887277493750503	-0.2630221681172253
-0.48881173978125503	-0.24389828172101827
-0.48875070462500503	-0.22383668257047437
-0.48868966946875503	-0.20291069331176034
-0.48862863431250503	-0.18119682310231147
-0.48856759915625503	-0.15877461708801915
-0.48850656400000503	-0.13572628537593293
-0.48844552884375503	-0.11213637017925236
-0.48838449368750503	-0.0880915577554104
-0.48832345853125503	-0.06368022940036969
-0.48826242337500503	-0.03899217163610684
-0.48820138821875503	-0.014118320584211258
-0.48814035306250503	0.01084966780818651
-0.48807931790625503	0.035819764822749206
-0.48801828275000503	0.06069979711911573
-0.48795724759375503	0.08539787064492917
-0.48789621243750503	0.10982277091310215
-0.48783517728125503	0.13388416236388637
-0.48777414212500503	0.1574929659467942
-0.48771310696875503	0.18056182097886642
-0.48765207181250503	0.20300521066669167
-0.48759103665625503	0.22473988082799226
-0.48753000150000503	0.24568520855613987
-0.48746896634375503	0.2657633668399574
-0.48740793118750503	0.28489970550078697
-0.48734689603125503	0.30302302257727687
-0.48728586087500503	0.3200658024410548
-0.48722482571875503	0.3359644682370794
-0.48716379056250503	0.3506596818682734
-0.48710275540625503	0.36409643182239876
-0.48704172025000503	0.3762244137498918
-0.48698068509375503	0.3869980980066379
-0.48691964993750503	0.39637687226961016
-0.48685861478125503	0.40432539134953094
-0.48679757962500503	0.4108134372280548
-0.48673654446875503	0.4158162450362174
-0.48667550931250503	0.41931454156525133
-0.48661447415625503	0.42129453372073594
-0.48655343900000503	0.42174810594143086
-0.48649240384375503	0.42067274190773934
-0.48643136868750503	0.41807157343191426
-0.48637033353125503	0.4139533982400386
-0.48630929837500503	0.40833260401106336
-0.48624826321875503	0.4012291453073372
-0.48618722806250503	0.392668480304405
-0.48612619290625503	0.38268144670636906
-0.48606515775000503	0.37130418083743205
-0.48600412259375503	0.35857798400353047
-0.48594308743750503	0.3445491390708901
-0.48588205228125503	0.32926878875171045
-0.48582101712500503	0.3127927223746978
-0.48575998196875503	0.2951811460281172
-0.48569894681250503	0.27649855011989216
-0.48563791165625503	0.2568133396830599
-0.48557687650000503	0.23619769422243225
-0.48551584134375503	0.21472728092502757
-0.48545480618750503	0.1924808945695502
-0.48539377103125503	0.1695403136050781
-0.48533273587500503	0.1459898107366247
-0.48527170071875503	0.12191602425824605
-0.48521066556250503	0.09740755614615583
-0.48514963040625503	0.07255456228252212
-0.48508859525000503	0.047448595237607034
-0.48502756009375503	0.022182133093904214
-0.48496652493750503	-0.0031517483819339547
-0.48490548978125503	-0.02845967367555498
-0.48484445462500503	-0.05364833358784981
-0.48478341946875503	-0.0786248646041328
-0.48472238431250503	-0.10329714998310212
-0.48466134915625503	-0.12757418631349576
-0.48460031400000503	-0.15136639975141575
-0.48453927884375503	-0.17458604100041203
-0.48447824368750503	-0.19714742124710394
-0.48441720853125503	-0.21896726929324917
-0.48435617337500503	-0.23996512714174092
-0.48429513821875503	-0.26006347950274217
-0.48423410306250503	-0.2791882040202288
-0.48417306790625503	-0.29726876516710643
-0.48411203275000503	-0.31423845465243666
-0.48405099759375503	-0.33003475190030235
-0.48398996243750503	-0.3445994465998443
-0.48392892728125503	-0.35787888494574166
-0.48386789212500503	-0.36982421962842504
-0.48380685696875503	-0.3803915460859073
-0.48374582181250503	-0.38954206649092593
-0.48368478665625503	-0.39724226752626174
-0.48362375150000503	-0.40346402143027865
-0.48356271634375503	-0.4081847010235437
-0.48350168118750503	-0.4113872672372223
-0.48344064603125503	-0.4130603344079866
-0.48337961087500503	-0.4131982127472546
-0.48331857571875503	-0.41180092819819414
-0.48325754056250503	-0.408874236618601
-0.48319650540625503	-0.404429589868399
-0.48313547025000503	-0.3984841046304451
-0.48307443509375503	-0.3910604941023042
-0.48301339993750503	-0.38218699235121256
-0.48295236478125503	-0.37189725150896163
-0.48289132962500503	-0.360230189470479
-0.48283029446875503	-0.34722990974488094
-0.48276925931250503	-0.3329454635484504
-0.48270822415625503	-0.31743071973307757
-0.48264718900000503	-0.30074416227389567
-0.48258615384375503	-0.2829486130119185
-0.48252511868750503	-0.2641111286036938
-0.48246408353125503	-0.24430257100508773
-0.48240304837500503	-0.22359750571384884
-0.48234201321875503	-0.2020738854125503
-0.48228097806250503	-0.17981261696321393
-0.48221994290625503	-0.1568975166080694
-0.48215890775000503	-0.13341478454697164
-0.48209787259375503	-0.10945273014407687
-0.48203683743750503	-0.08510156532610963
-0.48197580228125503	-0.06045288148271139
-0.48191476712500503	-0.03559940764851395
-0.48185373196875503	-0.010634739271595108
-0.48179269681250503	0.014347211934420297
-0.48173166165625503	0.039252420431111774
-0.48167062650000503	0.06398704165078375
-0.48160959134375503	0.08845801126374804
-0.48154855618750503	0.11257315151218737
-0.48148752103125503	0.13624153611709627
-0.48142648587500503	0.15937407840032192
-0.48136545071875503	0.18188354109634583
-0.48130441556250503	0.20368501237582645
-0.48124338040625503	0.22469635802150945
-0.48118234525000503	0.2448382113446412
-0.48112131009375503	0.2640345919759002
-0.48106027493750503	0.2822130233488618
-0.48099923978125503	0.29930477091701563
-0.48093820462500503	0.3152452950115351
-0.48087716946875503	0.329974238177672
-0.48081613431250503	0.34343587801999487
-0.48075509915625503	0.3555792164509314
-0.48069406400000503	0.36635815475718614
-0.48063302884375503	0.37573181446996007
-0.48057199368750503	0.3836644991592156
-0.48051095853125503	0.39012596277909733
-0.48044992337500503	0.3950915175332741
-0.48038888821875503	0.39854204595195225
-0.48032785306250503	0.40046415852285855
-0.48026681790625503	0.40085022912567775
-0.48020578275000503	0.3996983886672597
-0.48014474759375503	0.39701256945785407
-0.48008371243750503	0.39280250012550866
-0.48002267728125503	0.387083631551086
-0.47996164212500503	0.37987712572100435
-0.47990060696875503	0.3712097503004282
-0.47983957181250503	0.36111378847961956
-0.47977853665625503	0.3496269348588005
-0.47971750150000503	0.3367921248302678
-0.47965646634375503	0.3226574080381822
-0.47959543118750503	0.3072757472996681
-0.47953439603125503	0.29070484363636007
-0.47947336087500503	0.2730069001659177
-0.47941232571875503	0.25424839602730476
-0.47935129056250503	0.23449985051982802
-0.47929025540625503	0.2138355396932841
-0.47922922025000503	0.19233327130693278
-0.47916818509375503	0.17007397973922755
-0.47910714993750503	0.1471415452060755
-0.47904611478125503	0.12362247435854243
-0.47898507962500503	0.09960542012197937
-0.47892404446875503	0.07518104421445812
-0.47886300931250503	0.05044161512801905
-0.47880197415625503	0.02548054937598714
-0.47874093900000503	0.000392227288294303
-0.47867990384375503	-0.02472841419923276
-0.47861886868750503	-0.04978638792942789
-0.47855783353125503	-0.07468673266315226
-0.47849679837500503	-0.09933509471690556
-0.47843576321875503	-0.12363807774370775
-0.47837472806250503	-0.1475033688603938
-0.47831369290625503	-0.1708404166940728
-0.47825265775000503	-0.1935605261233082
-0.47819162259375503	-0.21557722668861534
-0.47813058743750503	-0.23680675535103154
-0.47806955228125503	-0.2571681941402132
-0.47800851712500503	-0.27658382878491944
-0.47794748196875503	-0.29497952246405407
-0.47788644681250503	-0.31228489794735625
-0.47782541165625503	-0.32843362386137476
-0.47776437650000503	-0.34336373834800554
-0.47770334134375503	-0.3570177915421299
-0.47764230618750503	-0.36934310325326014
-0.47758127103125503	-0.38029199868873637
-0.47752023587500503	-0.3898219397111011
-0.47745920071875503	-0.39789568805393916
-0.47739816556250503	-0.40448150574037384
-0.47733713040625503	-0.4095532199970149
-0.47727609525000503	-0.4130903410246759
-0.47721506009375503	-0.4150781624116666
-0.47715402493750503	-0.41550779280662786
-0.47709298978125503	-0.41437621526625174
-0.47703195462500503	-0.4116862809969762
-0.47697091946875503	-0.407446725477055
-0.47690988431250503	-0.4016721215354102
-0.47684884915625503	-0.39438283181140593
-0.47678781400000503	-0.3856049458343869
-0.47672677884375503	-0.375370163320771
-0.47666574368750503	-0.3637157145784101
-0.47660470853125503	-0.35068416938404934
-0.47654367337500503	-0.33632334362362426
-0.47648263821875503	-0.3206860836441307
-0.47642160306250503	-0.3038300289112537
-0.47636056790625503	-0.2858175521145102
-0.47629953275000503	-0.2667152981266226
-0.47623849759375503	-0.24659412399647634
-0.47617746243750503	-0.22552880528880895
-0.47611642728125503	-0.2035975957138142
-0.47605539212500503	-0.1808822159244806
-0.47599435696875503	-0.157467270539155
-0.47593332181250503	-0.13344005984470442
-0.47587228665625503	-0.1088903500849992
-0.47581125150000503	-0.08390978797986093
-0.47575021634375503	-0.058591768867633696
-0.47568918118750503	-0.03303105523200424
-0.47562814603125503	-0.007323280095576307
-0.47556711087500503	0.018435243818295442
-0.47550607571875503	0.044147969697199536
-0.47544504056250503	0.06971846967048097
-0.47538400540625503	0.09505081057604746
-0.47532297025000503	0.12004990027378384
-0.47526193509375503	0.1446217955148335
-0.47520089993750503	0.16867420438411326
-0.47513986478125503	0.1921166605876409
-0.47507882962500503	0.2148609677444067
-0.47501779446875503	0.23682154679435158
-0.47495675931250503	0.2579156695564691
-0.47489572415625503	0.27806385980371245
-0.47483468900000503	0.29719016879048776
-0.47477365384375503	0.31522243319348103
-0.47471261868750503	0.3320925932828649
-0.47465158353125503	0.3477369345194361
-0.47459054837500503	0.3620962957320254
-0.47452951321875503	0.375116382975297
-0.47446847806250503	0.3867478796722417
-0.47440744290625503	0.3969466737035145
-0.47434640775000503	0.4056740740459157
-0.47428537259375503	0.41289687750312454
-0.47422433743750503	0.41858753270375726
-0.47416330228125503	0.42272428363190634
-0.47410226712500503	0.42529119637982504
-0.47404123196875503	0.4262782387240169
-0.47398019681250503	0.42568135877877367
-0.47391916165625503	0.4235024486423866
-0.47385812650000503	0.4197493693434563
-0.47379709134375503	0.4144359323689247
-0.47373605618750503	0.4075818254520909
-0.47367502103125503	0.3992125516821325
-0.47361398587500503	0.38935935293613805
-0.47355295071875503	0.3780590623345034
-0.47349191556250503	0.3653539949867889
-0.47343088040625503	0.3512917724679736
-0.47336984525000503	0.33592516266877537
-0.47330881009375503	0.31931187391786603
-0.47324777493750503	0.3015143034319564
-0.47318673978125503	0.28259940012422236
-0.47312570462500503	0.2626383072106346
-0.47306466946875503	0.241706128614141
-0.47300363431250503	0.21988170411990035
-0.47294259915625503	0.19724723370733901
-0.47288156400000503	0.17388798140632564
-0.47282052884375503	0.14989202371428992
-0.47275949368750503	0.12534984632435828
-0.47269845853125503	0.10035396405252497
-0.47263742337500503	0.07499873014487249
-0.47257638821875503	0.04937981077789366
-0.47251535306250503	0.023593892697492236
-0.47245431790625503	-0.0022616299890592033
-0.47239328275000503	-0.02808915539023036
-0.47233224759375503	-0.053791096210119446
-0.47227121243750503	-0.07927037167283094
-0.47221017728125503	-0.10443069405170485
-0.47214914212500503	-0.12917694814085828
-0.47208810696875503	-0.15341564341222938
-0.47202707181250503	-0.17705509882842288
-0.47196603665625503	-0.2000059387792417
-0.47190500150000503	-0.22218138502295912
-0.47184396634375503	-0.24349754623135703
-0.47178293118750503	-0.26387382749500804
-0.47172189603125503	-0.2832331148886812
-0.47166086087500503	-0.30150219113375776
-0.47159982571875503	-0.3186119766790677
-0.47153879056250503	-0.3344976893322319
-0.47147775540625503	-0.3490992835686635
-0.47141672025000503	-0.36236153565545226
-0.47135568509375503	-0.37423427124448333
-0.47129464993750503	-0.38467264687906483
-0.47123361478125503	-0.3936372016413617
-0.47117257962500503	-0.4010941022257978
-0.47111154446875503	-0.40701523891787417
-0.47105050931250503	-0.4113783112063936
-0.47098947415625503	-0.41416697101276306
-0.47092843900000503	-0.41537083661401475
-0.47086740384375503	-0.41498554925119846
-0.47080636868750503	-0.41301281645296406
-0.47074533353125503	-0.4094603723134444
-0.47068429837500503	-0.40434196228261
-0.47062326321875503	-0.39767731979358767
-0.47056222806250503	-0.3894920439838189
-0.47050119290625503	-0.37981754403800777
-0.47044015775000503	-0.36869091994844944
