Time	Frequency
-0.5000510978437518	-7.228790396836825e-25
-0.4999900626875018	-7.698162626197179e-25
-0.4999290275312518	-8.131017353338601e-25
-0.4998679923750018	-8.525254527415173e-25
-0.4998069572187518	-8.87896006402687e-25
-0.4997459220625018	-9.19041466371925e-25
-0.4996848869062518	-9.458104197993628e-25
-0.4996238517500018	-9.680724371852108e-25
-0.4995628165937518	-9.857189410103531e-25
-0.4995017814375018	-9.986637011883983e-25
-0.4994407462812518	-1.0068430686923639e-24
-0.4993797111250018	-1.0102166618794966e-24
-0.4993186759687518	-1.0087672268671229e-24
-0.4992576408125018	-1.0025008533369162e-24
-0.4991966056562518	-9.914470935359265e-25
-0.4991355705000018	-9.756585912467489e-25
-0.4990745353437518	-9.552109905726395e-25
-0.4990135001875018	-9.302025524836846e-25
-0.4989524650312518	-9.007536372277333e-25
-0.4988914298750018	-8.670062081113432e-25
-0.4988303947187518	-8.291230769757805e-25
-0.4987693595625018	-7.872871197989473e-25
-0.4987083244062518	-7.41700480228704e-25
-0.4986472892500018	-6.925835711053669e-25
-0.4985862540937518	-6.401738385124085e-25
-0.4985252189375018	-5.847248249705003e-25
-0.4984641837812518	-5.265050316087946e-25
-0.4984031486250018	-4.657961914944615e-25
-0.4983421134687518	-4.028921868604865e-25
-0.4982810783125018	-3.3809793428911054e-25
-0.4982200431562518	-2.717272402090407e-25
-0.4981590080000018	-2.0410154453512584e-25
-0.4980979728437518	-1.3554887110328134e-25
-0.4980369376875018	-6.640137025613921e-26
-0.4979759025312518	3.0058251282216443e-27
-0.4979148673750018	7.233599978941202e-26
-0.4978538322187518	1.412532186692833e-25
-0.4977927970625018	2.094231520929425e-25
-0.4977317619062518	2.7651512784369934e-25
-0.4976707267500018	3.4220414040061777e-25
-0.4976096915937518	4.0617134869069734e-25
-0.4975486564375018	4.681065157885129e-25
-0.4974876212812518	5.277097166041649e-25
-0.4974265861250018	5.846917099091429e-25
-0.4973655509687518	6.387763128180501e-25
-0.4973045158125018	6.897016150240674e-25
-0.4972434806562518	7.372207514229828e-25
-0.4971824455000018	7.8110381292377495e-25
-0.4971214103437518	8.211383771324179e-25
-0.4970603751875018	8.571307820088947e-25
-0.4969993400312518	8.889073504060267e-25
-0.4969383048750018	9.163147200155285e-25
-0.4968772697187518	9.392209183329164e-25
-0.4968162345625018	9.575160378604326e-25
-0.4967551994062518	9.711126603741992e-25
-0.4966941642500018	9.799462778825495e-25
-0.4966331290937518	9.839757115265737e-25
-0.4965720939375018	9.831833064983543e-25
-0.4965110587812518	9.775748873154045e-25
-0.4964500236250018	9.67179944766389e-25
-0.4963889884687518	9.52051354149804e-25
-0.4963279533125018	9.322651138069832e-25
-0.4962669181562518	9.0792015802515e-25
-0.4962058830000018	8.791375912668448e-25
-0.4961448478437518	8.460603672489536e-25
-0.4960838126875018	8.088525035986927e-25
-0.4960227775312518	7.676981676510826e-25
-0.4959617423750018	7.228009807712992e-25
-0.4959007072187518	6.74382894556774e-25
-0.4958396720625018	6.226831688542834e-25
-0.4957786369062518	5.679570891281019e-25
-0.4957176017500018	5.104749758710154e-25
-0.4956565665937518	4.505205497048138e-25
-0.4955955314375018	3.8838974795583246e-25
-0.4955344962812518	3.243893115237294e-25
-0.4954734611250018	2.5883499170389417e-25
-0.4954124259687518	1.920504609092267e-25
-0.4953513908125018	1.243652552132257e-25
-0.4952903556562518	5.611356804248082e-26
-0.4952293205000018	-1.236766608427034e-26
-0.4951682853437518	-8.074051770647736e-26
-0.4951072501875018	-1.4866702048793662e-25
-0.4950462150312518	-2.1581183399449187e-25
-0.4949851798750018	-2.818434045757977e-25
-0.4949241447187518	-3.4643513066640037e-25
-0.4948631095625018	-4.0926783732133463e-25
-0.4948020744062518	-4.700309322085488e-25
-0.4947410392500018	-5.284236951386764e-25
-0.4946800040937518	-5.841572274990468e-25
-0.4946189689375018	-6.369555637031842e-25
-0.4945579337812518	-6.865570569076564e-25
-0.4944968986250018	-7.3271601701073725e-25
-0.4944358634687518	-7.75203299041173e-25
-0.4943748283125018	-8.138079018049051e-25
-0.4943137931562518	-8.48338096972614e-25
-0.4942527580000018	-8.786218710346243e-25
-0.4941917228437518	-9.045082940258316e-25
-0.4941306876875018	-9.258679912951405e-25
-0.4940696525312518	-9.425938614972018e-25
-0.4940086173750018	-9.546016852481101e-25
-0.4939475822187518	-9.618303415826413e-25
-0.4938865470625018	-9.642424059935856e-25
-0.4938255119062518	-9.618241330446224e-25
-0.4937644767500018	-9.545855761075931e-25
-0.4937034415937518	-9.425606320519048e-25
-0.4936424064375018	-9.25806796241691e-25
-0.4935813712812518	-9.04404929426066e-25
-0.4935203361250018	-8.784588674277139e-25
-0.4934593009687518	-8.48094944015288e-25
-0.4933982658125018	-8.134613078189739e-25
-0.4933372306562518	-7.747273153365422e-25
-0.4932761955000018	-7.320826066220998e-25
-0.4932151603437518	-6.857362426090782e-25
-0.4931541251875018	-6.359156713638846e-25
-0.4930930900312518	-5.828655792648459e-25
-0.4930320548750018	-5.268468170252172e-25
-0.4929710197187518	-4.681349418577877e-25
-0.4929099845625018	-4.0701897359207387e-25
-0.4928489494062518	-3.4380011245580444e-25
-0.4927879142500018	-2.787899457817102e-25
-0.4927268790937518	-2.1230909534778426e-25
-0.4926658439375018	-1.44685884833653e-25
-0.4926048087812518	-7.625420951159932e-26
-0.4925437736250018	-7.352226902341088e-27
-0.4924827384687518	6.167920055126137e-26
-0.4924217033125018	1.3049849338945128e-25
-0.4923606681562518	1.9876488351579793e-25
-0.4922996330000018	2.661400132441899e-25
-0.4922385978437518	3.3228977729020304e-25
-0.4921775626875018	3.9688580878039056e-25
-0.4921165275312518	4.596071877372152e-25
-0.4920554923750018	5.201421810075816e-25
-0.4919944572187518	5.78189224550875e-25
-0.4919334220625018	6.334591944494725e-25
-0.4918723869062518	6.856763872349041e-25
-0.4918113517500018	7.345796207654033e-25
-0.4917503165937518	7.7992430998716285e-25
-0.4916892814375018	8.214830016899437e-25
-0.4916282462812518	8.590466748906528e-25
-0.4915672111250018	8.924260035530436e-25
-0.4915061759687518	9.214520799610715e-25
-0.4914451408125018	9.459772710380977e-25
-0.4913841056562518	9.65876104365287e-25
-0.4913230705000018	9.810457486128375e-25
-0.4912620353437518	9.914065603773204e-25
-0.4912010001875018	9.969026628500454e-25
-0.4911399650312518	9.97501968001705e-25
-0.4910789298750018	9.9319648648278e-25
-0.4910178947187518	9.84002476866037e-25
-0.4909568595625018	9.69960213755972e-25
-0.4908958244062518	9.511338470987006e-25
-0.4908347892500018	9.276112045539278e-25
-0.4907737540937518	8.995032706662811e-25
-0.4907127189375018	8.669436036284324e-25
-0.4906516837812518	8.300879254914997e-25
-0.4905906486250018	7.891131296870027e-25
-0.4905296134687518	7.442163759795757e-25
-0.4904685783125018	6.956146223684392e-25
-0.4904075431562518	6.435428368442875e-25
-0.4903465080000018	5.88253357804289e-25
-0.4902854728437518	5.30014755430356e-25
-0.4902244376875018	4.691098263760231e-25
-0.4901634025312518	4.0583516936430996e-25
-0.4901023673750018	3.4049893583300784e-25
-0.4900413322187518	2.7341963685551524e-25
-0.4899802970625018	2.049248240751783e-25
-0.4899192619062518	1.3534883467732948e-25
-0.4898582267500018	6.503192286617491e-26
-0.4897971915937518	-5.6820655931956136e-27
-0.4897361564375018	-7.644704792884416e-26
-0.4896751212812518	-1.4691623436809886e-25
-0.4896140861250018	-2.16744594952308e-25
-0.4895530509687518	-2.855895076241746e-25
-0.4894920158125018	-3.5311323207125934e-25
-0.4894309806562518	-4.1898448233019565e-25
-0.4893699455000018	-4.828794037601151e-25
-0.4893089103437518	-5.444843371060772e-25
-0.4892478751875018	-6.034961915571107e-25
-0.4891868400312518	-6.596245459484428e-25
-0.4891258048750018	-7.125933903619061e-25
-0.4890647697187518	-7.621415646547352e-25
-0.4890037345625018	-8.080248811762075e-25
-0.4889426994062518	-8.50017101793216e-25
-0.4888816642500018	-8.879108826794715e-25
-0.4888206290937518	-9.21518934290584e-25
-0.4887595939375018	-9.506750206477067e-25
-0.4886985587812518	-9.752347475602177e-25
-0.4886375236250018	-9.950761683198224e-25
-0.4885764884687518	-1.0101005145510362e-24
-0.4885154533125018	-1.0202327657078903e-24
-0.4884544181562518	-1.0254218208830131e-24
-0.4883933830000018	-1.0256408950009647e-24
-0.4883323478437518	-1.0208877353287076e-24
-0.4882713126875018	-1.0111844251165496e-24
-0.4882102775312518	-9.965775011903794e-25
-0.4881492423750018	-9.77137605681432e-25
-0.4880882072187518	-9.52959221801955e-25
-0.4880271720625018	-9.241601574612547e-25
-0.4879661369062518	-8.908809804430001e-25
-0.4879051017500018	-8.532844817201825e-25
-0.4878440665937518	-8.115545433398538e-25
-0.4877830314375018	-7.658956428904641e-25
-0.4877219962812518	-7.165316349147537e-25
-0.4876609611250018	-6.637044964716488e-25
-0.4875999259687518	-6.076735953096028e-25
-0.4875388908125018	-5.487139967926692e-25
-0.4874778556562518	-4.871151782616336e-25
-0.4874168205000018	-4.231798755770976e-25
-0.4873557853437518	-3.572223154017143e-25
-0.4872947501875018	-2.8956661741939352e-25
-0.4872337150312518	-2.2054555132246464e-25
-0.4871726798750018	-1.50498677706333e-25
-0.4871116447187518	-7.977033362534389e-26
-0.4870506095625018	-8.708682699556841e-27
-0.4869895744062518	6.23366359292631e-26
-0.4869285392500018	1.3301605385189158e-25
-0.4868675040937518	2.0298148372592096e-25
-0.4868064689375018	2.7188892557129796e-25
-0.4867454337812518	3.393987952743573e-25
-0.4866843986250018	4.051789173780566e-25
-0.4866233634687518	4.689057432281692e-25
-0.4865623283125018	5.302650961120993e-25
-0.4865012931562518	5.88955474010159e-25
-0.4864402580000018	6.446878879094328e-25
-0.4863792228437518	6.971879936205969e-25
-0.4863181876875018	7.461979192276634e-25
-0.4862571525312518	7.914764288981391e-25
-0.4861961173750018	8.32801161753797e-25
-0.4861350822187518	8.699693092785746e-25
-0.4860740470625018	9.027983012346183e-25
-0.4860130119062518	9.311275271255368e-25
-0.4859519767500018	9.54818417247713e-25
-0.4858909415937518	9.737552735014391e-25
-0.4858299064375018	9.878463305574124e-25
-0.4857688712812518	9.97023533423403e-25
-0.4857078361250018	1.0012433173074733e-24
-0.4856468009687518	1.0004867988354304e-24
-0.4855857658125018	9.947596557528824e-25
-0.4855247306562518	9.840923603076424e-25
-0.4854636955000018	9.68539866165785e-25
-0.4854026603437518	9.48181407144945e-25
-0.4853416251875018	9.231201245221929e-25
-0.4852805900312518	8.934825530305047e-25
-0.4852195548750018	8.594178896372056e-25
-0.4851585197187518	8.210975104721422e-25
-0.4850974845625018	7.787138869430986e-25
-0.4850364494062518	7.324796255853997e-25
-0.4849754142500018	6.826267952141991e-25
-0.4849143790937518	6.294050951807431e-25
-0.4848533439375018	5.730814240813434e-25
-0.4847923087812518	5.139379221298043e-25
-0.4847312736250018	4.522706616777244e-25
-0.4846702384687518	3.8838889006312646e-25
-0.4846092033125018	3.226121189220351e-25
-0.4845481681562518	2.5526999398285153e-25
-0.4844871330000018	1.866998084279606e-25
-0.4844260978437518	1.1724477060134092e-25
-0.4843650626875018	4.725306674605353e-26
-0.4843040275312518	-2.292505430697539e-26
-0.4842429923750018	-9.29377319557135e-26
-0.4841819572187518	-1.6243414305798355e-25
-0.4841209220625018	-2.310662688513776e-25
-0.4840598869062518	-2.9848979444525598e-25
-0.4839988517500018	-3.6436667718945413e-25
-0.4839378165937518	-4.2836662901882925e-25
-0.4838767814375018	-4.901685627200172e-25
-0.4838157462812518	-5.494621493016362e-25
-0.4837547111250018	-6.059497898152805e-25
-0.4836936759687518	-6.5934779845003635e-25
-0.4836326408125018	-7.093876462886458e-25
-0.4835716056562518	-7.5581786870023125e-25
-0.4835105705000018	-7.984047075275909e-25
-0.4834495353437518	-8.369336747317942e-25
-0.4833885001875018	-8.71210640561345e-25
-0.4833274650312518	-9.010624302689083e-25
-0.4832664298750018	-9.263382621422697e-25
-0.4832053947187518	-9.469099722337571e-25
-0.4831443595625018	-9.626730266274888e-25
-0.4830833244062518	-9.735469843218964e-25
-0.4830222892500018	-9.794756533488171e-25
-0.4829612540937518	-9.804278167834267e-25
-0.4829002189375018	-9.76397059644581e-25
-0.4828391837812518	-9.674019241803572e-25
-0.4827781486250018	-9.534858476346746e-25
-0.4827171134687518	-9.347169749150965e-25
-0.4826560783125018	-9.11187744302909e-25
-0.4825950431562518	-8.83014506233123e-25
-0.4825340080000018	-8.503369750883246e-25
-0.4824729728437518	-8.133174356523732e-25
-0.4824119376875018	-7.7214010773987e-25
-0.4823509025312518	-7.270100308157621e-25
-0.4822898673750018	-6.781522676273578e-25
-0.4822288322187518	-6.2581064319312805e-25
-0.4821677970625018	-5.7024649835327e-25
-0.4821067619062518	-5.117376490453807e-25
-0.4820457267500018	-4.50576673894179e-25
-0.4819846915937518	-3.8706962035835803e-25
-0.4819236564375018	-3.2153459043194804e-25
-0.4818626212812518	-2.542999846069777e-25
-0.4818015861250018	-1.8570277750661216e-25
-0.4817405509687518	-1.160871769800146e-25
-0.4816795158125018	-4.580275993438502e-26
-0.4816184806562518	2.479770111049453e-26
-0.4815574455000018	9.535920249953695e-26
-0.4814964103437518	1.6552680007596765e-25
-0.4814353751875018	2.3494766282267434e-25
-0.4813743400312518	3.0327187148945357e-25
-0.4813133048750018	3.701551526806994e-25
-0.4812522697187518	4.352603322705671e-25
-0.4811912345625018	4.982584143418594e-25
-0.4811301994062518	5.5883127713323345e-25
-0.4810691642500018	6.166725126036821e-25
-0.4810081290937518	6.714889306230648e-25
-0.4809470939375018	7.230028058048924e-25
-0.4808860587812518	7.709524369442443e-25
-0.4808250236250018	8.150936652958584e-25
-0.4807639884687518	8.552016365865137e-25
-0.4807029533125018	8.91071255325091e-25
-0.4806419181562518	9.225184662858959e-25
-0.4805808830000018	9.493814674681707e-25
-0.4805198478437518	9.71521111318469e-25
-0.4804588126875018	9.888218548422892e-25
-0.4803977775312518	1.0011922952190972e-24
-0.4803367423750018	1.008565675387214e-24
-0.4802757072187518	1.0109002137156383e-24
-0.4802146720625018	1.0081792379720419e-24
-0.4801536369062518	1.0004114835860383e-24
-0.4800926017500018	9.876309187190614e-25
-0.4800315665937518	9.698965868750502e-25
-0.4799705314375018	9.472924001135477e-25
-0.4799094962812518	9.19926758862617e-25
-0.4798484611250018	8.879318461786275e-25
-0.4797874259687518	8.51463210516633e-25
-0.4797263908125018	8.106989022673248e-25
-0.4796653556562518	7.658385051329118e-25
-0.4796043205000018	7.1710231352018535e-25
-0.4795432853437518	6.647301332602096e-25
-0.4794822501875018	6.089802330552879e-25
-0.4794212150312518	5.501277393168144e-25
-0.4793601798750018	4.884636694147577e-25
-0.4792991447187518	4.242933978273371e-25
-0.4792381095625018	3.5793471848457115e-25
-0.4791770744062518	2.897168577211869e-25
-0.4791160392500018	2.1997853385329914e-25
-0.4790550040937518	1.490661776102045e-25
-0.4789939689375018	7.733243072353989e-26
-0.4789329337812518	5.134230798444551e-27
-0.4788718986250018	-6.716890028052828e-26
-0.4788108634687518	-1.3921675256392223e-25
-0.4787498283125018	-2.1065005195372487e-25
-0.4786887931562518	-2.8111248193632377e-25
-0.4786277580000018	-3.5025231918132223e-25
-0.4785667228437518	-4.177241477687223e-25
-0.4785056876875018	-4.831908636060796e-25
-0.4784446525312518	-5.46324985254087e-25
-0.4783836173750018	-6.0681070662687425e-25
-0.4783225822187518	-6.643451048490236e-25
-0.4782615470625018	-7.186398749251166e-25
-0.4782005119062518	-7.694229597396279e-25
-0.4781394767500018	-8.164392731635257e-25
-0.4780784415937518	-8.594528531672693e-25
-0.4780174064375018	-8.982475569133989e-25
-0.4779563712812518	-9.32627847799962e-25
-0.4778953361250018	-9.624206548053725e-25
-0.4778343009687518	-9.87475565564843e-25
-0.4777732658125018	-1.0076656209704407e-24
-0.4777122306562518	-1.022888408890728e-24
-0.4776511955000018	-1.0330661690558996e-24
-0.4775901603437518	-1.0381462948352756e-24
-0.4775291251875018	-1.0381017801386526e-24
-0.4774680900312518	-1.0329311750317485e-24
-0.4774070548750018	-1.0226586358590755e-24
-0.4773460197187518	-1.0073339230730882e-24
-0.4772849845625018	-9.870320795363488e-25
-0.4772239494062518	-9.618530541205839e-25
-0.4771629142500018	-9.319212232076424e-25
-0.4771018790937518	-8.97384908515596e-25
-0.4770408439375018	-8.584154026463723e-25
-0.4769798087812518	-8.152062660446139e-25
-0.4769187736250018	-7.679724691077634e-25
-0.4768577384687518	-7.169490207326802e-25
-0.4767967033125018	-6.623901918703878e-25
-0.4767356681562518	-6.045678043686874e-25
-0.4766746330000018	-5.437702364443631e-25
-0.4766135978437518	-4.803010202719392e-25
-0.4765525626875018	-4.144766604650001e-25
-0.4764915275312518	-3.466261062196071e-25
-0.4764304923750018	-2.77088297633843e-25
-0.4763694572187518	-2.062104604125659e-25
-0.4763084220625018	-1.343472074659146e-25
-0.4762473869062518	-6.185760238044632e-26
-0.4761863517500018	1.0895828178093241e-26
-0.4761253165937518	8.354899526549245e-26
-0.4760642814375018	1.5573866630871992e-25
-0.4760032462812518	2.271034441073877e-25
-0.4759422111250018	2.972863039783492e-25
-0.4758811759687518	3.659359577574888e-25
-0.4758201408125018	4.327086952275037e-25
-0.4757591056562518	4.972704872201733e-25
-0.4756980705000018	5.592979031141731e-25
-0.4756370353437518	6.1848058628925195e-25
-0.4755760001875018	6.745223806979517e-25
-0.4755149650312518	7.271425532811959e-25
-0.4754539298750018	7.760780316580452e-25
-0.4753928947187518	8.210839756126104e-25
-0.4753318595625018	8.619351243873091e-25
-0.4752708244062518	8.984275232540014e-25
-0.4752097892500018	9.303788331417629e-25
-0.4751487540937518	9.576295151487949e-25
-0.4750877189375018	9.800439667821174e-25
-0.4750266837812518	9.97510680525942e-25
-0.4749656486250018	1.009943140951014e-24
-0.4749046134687518	1.0172802375807565e-24
-0.4748435783125018	1.0194864639236252e-24
-0.4747825431562518	1.016552270678898e-24
-0.4747215080000018	1.0084939286716843e-24
-0.4746604728437518	9.953536186675704e-25
-0.4745994376875018	9.771991741530285e-25
-0.4745384025312518	9.541236929764066e-25
-0.4744773673750018	9.262451586253773e-25
-0.4744163322187518	8.937058034150953e-25
-0.4743552970625018	8.566714268363497e-25
-0.4742942619062518	8.153304943381114e-25
-0.4742332267500018	7.698933557484043e-25
-0.4741721915937518	7.2059098158890955e-25
-0.4741111564375018	6.676739254654183e-25
-0.4740501212812518	6.114111588813463e-25
-0.4739890861250018	5.520883715280799e-25
-0.4739280509687518	4.900069910685956e-25
-0.4738670158125018	4.254823616663778e-25
-0.4738059806562518	3.5884216423175542e-25
-0.4737449455000018	2.9042495234246884e-25
-0.4736839103437518	2.2057817843504574e-25
-0.4736228751875018	1.496567503693023e-25
-0.4735618400312518	7.802092473926875e-26
-0.4735008048750018	6.034702788395189e-27
-0.4734397697187518	-6.593605967239401e-26
-0.4733787345625018	-1.375255874299907e-25
-0.4733176994062518	-2.0836993085303123e-25
-0.4732566642500018	-2.7810892466594644e-25
-0.4731956290937518	-3.463877081263512e-25
-0.4731345939375018	-4.1285912673216695e-25
-0.4730735587812518	-4.771848959355434e-25
-0.4730125236250018	-5.390374145959403e-25
-0.4729514884687518	-5.981019547422768e-25
-0.4728904533125018	-6.5407750613417225e-25
-0.4728294181562518	-7.066788135426932e-25
-0.4727683830000018	-7.556376884408581e-25
-0.4727073478437518	-8.007044020114485e-25
-0.4726463126875018	-8.416488729381555e-25
-0.4725852775312518	-8.782618054718704e-25
-0.4725242423750018	-9.103561280502553e-25
-0.4724632072187518	-9.377673949353774e-25
-0.4724021720625018	-9.603550364185518e-25
-0.4723411369062518	-9.780029883119083e-25
-0.4722801017500018	-9.906201597709328e-25
-0.4722190665937518	-9.981411194015824e-25
-0.4721580314375018	-1.0005262353961137e-24
-0.4720969962812518	-9.977620263683634e-25
-0.4720359611250018	-9.898611858198612e-25
-0.4719749259687518	-9.76862556020296e-25
-0.4719138908125018	-9.588308787281796e-25
-0.4718528556562518	-9.358565879917305e-25
-0.4717918205000018	-9.08055281969307e-25
-0.4717307853437518	-8.755671103423458e-25
-0.4716697501875018	-8.385562612587372e-25
-0.4716087150312518	-7.9720986055172025e-25
-0.4715476798750018	-7.517373076816392e-25
