Time	Frequency
-0.5000395774062554	-0.23057063579702863
-0.4999785422500054	-0.25331787916474524
-0.4999175070937554	-0.275035574859969
-0.4998564719375054	-0.2956305894009145
-0.4997954367812554	-0.31501455362546665
-0.4997344016250054	-0.3331040688827148
-0.4996733664687554	-0.3498210770773998
-0.4996123313125054	-0.36509342823246066
-0.4995512961562554	-0.37885481962077794
-0.4994902610000054	-0.3910453449945991
-0.4994292258437554	-0.4016117165259628
-0.4993681906875054	-0.4105073626032452
-0.4993071555312554	-0.41769278983799724
-0.4992461203750054	-0.4231356303161141
-0.4991850852187554	-0.42681087960795744
-0.4991240500625054	-0.4287009353509215
-0.4990630149062554	-0.4287956934610876
-0.4990019797500054	-0.4270926411145279
-0.4989409445937554	-0.42359680138343897
-0.4988799094375054	-0.4183207729127672
-0.4988188742812554	-0.41128465033797607
-0.4987578391250054	-0.40251596399786893
-0.4986968039687554	-0.39204955591661145
-0.4986357688125054	-0.3799274346894159
-0.4985747336562554	-0.3661986307846225
-0.4985136985000054	-0.35091894663938306
-0.4984526633437554	-0.33415077739201965
-0.4983916281875054	-0.31596282005687343
-0.4983305930312554	-0.2964297810835366
-0.4982695578750054	-0.27563210114541087
-0.4982085227187554	-0.2536555954503002
-0.4981474875625054	-0.2305910848106509
-0.4980864524062554	-0.20653402101343663
-0.4980254172500054	-0.1815841642775397
-0.4979643820937554	-0.15584500095009615
-0.4979033469375054	-0.12942342851198724
-0.4978423117812554	-0.10242939060544234
-0.4977812766250054	-0.07497513887207068
-0.4977202414687554	-0.047175040925177075
-0.4976592063125054	-0.01914500406574006
-0.4975981711562554	0.008998135266688308
-0.4975371360000054	0.03713687174497327
-0.4974761008437554	0.06515371683738204
-0.4974150656875054	0.09293164630055645
-0.4973540305312554	0.12035451038178231
-0.4972929953750054	0.14730760932026216
-0.4972319602187554	0.1736782125959792
-0.4971709250625054	0.19935591536399133
-0.4971098899062554	0.22423315893700016
-0.4970488547500054	0.24820577691199858
-0.4969878195937554	0.27117328479877145
-0.4969267844375054	0.2930393887072717
-0.4968657492812554	0.31371239331364165
-0.4968047141250054	0.3331055957647951
-0.4967436789687554	0.35113760492541013
-0.4966826438125054	0.3677327160844387
-0.4966216086562554	0.38282129446044877
-0.4965605735000054	0.3963399465098702
-0.4964995383437554	0.4082318841239993
-0.4964385031875054	0.41844715801231036
-0.4963774680312554	0.426942836887526
-0.4963164328750054	0.4336832050378986
-0.4962553977187554	0.43863993660930256
-0.4961943625625054	0.44179219815905424
-0.4961333274062554	0.4431267298380186
-0.4960722922500054	0.4426379497113567
-0.4960112570937554	0.4403279183798413
-0.4959502219375054	0.43620638002386897
-0.4958891867812554	0.4302907155726521
-0.4958281516250054	0.42260585261090766
-0.4957671164687554	0.4131841780191017
-0.4957060813125054	0.4020654147631962
-0.4956450461562554	0.38929643351599313
-0.4955840110000054	0.3749310563967408
-0.4955229758437554	0.3590298797997447
-0.4954619406875054	0.3416599433105604
-0.4954009055312554	0.32289450582624507
-0.4953398703750054	0.3028127317525636
-0.4952788352187554	0.28149932739686445
-0.4952178000625054	0.259044225211784
-0.4951567649062554	0.23554215997888883
-0.4950957297500054	0.2110923127278623
-0.4950346945937554	0.18579787229486283
-0.4949736594375054	0.15976558514205533
-0.4949126242812554	0.1331053277437594
-0.4948515891250054	0.10592965041986055
-0.4947905539687554	0.07835326460269508
-0.4947295188125054	0.05049256348344527
-0.4946684836562554	0.02246518966280756
-0.4946074485000054	-0.005610541792983123
-0.4945464133437554	-0.03361610647022447
-0.4944853781875054	-0.06143329976218083
-0.4944243430312554	-0.08894467108202402
-0.4943633078750054	-0.11603407579815583
-0.4943022727187554	-0.14258722846545221
-0.4942412375625054	-0.16849203110798178
-0.4941802024062554	-0.19363920030666243
-0.4941191672500054	-0.217922630745768
-0.4940581320937554	-0.2412399114818274
-0.4939970969375054	-0.26349277534780885
-0.4939360617812554	-0.28458736150517977
-0.4938750266250054	-0.3044348395903761
-0.4938139914687554	-0.3229516864974027
-0.4937529563125054	-0.3400599512152871
-0.4936919211562554	-0.3556877378544301
-0.4936308860000054	-0.3697694652739778
-0.4935698508437554	-0.382246077422399
-0.4935088156875054	-0.3930653836649175
-0.4934477805312554	-0.40218226919819383
-0.4933867453750054	-0.4095588217873076
-0.4933257102187554	-0.41516457799251855
-0.4932646750625054	-0.4189766271910339
-0.4932036399062554	-0.4209796714625602
-0.4931426047500054	-0.42116615506728255
-0.4930815695937554	-0.4195362603430104
-0.4930205344375054	-0.41609792174009635
-0.4929594992812554	-0.41086678281042766
-0.4928984641250054	-0.403866149599708
-0.4928374289687554	-0.39512689349179875
-0.4927763938125054	-0.3846872799146255
-0.4927153586562554	-0.37259288558686565
-0.4926543235000054	-0.3588963305505537
-0.4925932883437554	-0.3436570894302228
-0.4925322531875054	-0.3269412588896014
-0.4924712180312554	-0.30882122663118305
-0.4924101828750054	-0.289375427635919
-0.4923491477187554	-0.268687950183296
-0.4922881125625054	-0.24684821447824032
-0.4922270774062554	-0.22395061044266357
-0.4921660422500054	-0.20009402749883495
-0.4921050070937554	-0.17538151005716973
-0.4920439719375054	-0.14991979412901751
-0.4919829367812554	-0.1238188002642598
-0.4919219016250054	-0.09719126266505737
-0.4918608664687554	-0.07015218246575904
-0.4917998313125054	-0.042818303248727055
-0.4917387961562554	-0.015307729593379272
-0.4916777610000054	0.01226065388132023
-0.4916167258437554	0.039767757044685104
-0.4915556906875054	0.06709464607223355
-0.4914946555312554	0.09412311513680136
-0.4914336203750054	0.12073626545580442
-0.4913725852187554	0.146818916302179
-0.4913115500625054	0.1722581027765687
-0.4912505149062554	0.19694357151147868
-0.4911894797500054	0.22076834621527697
-0.4911284445937554	0.24362902390965444
-0.4910674094375054	0.2654262881785063
-0.4910063742812554	0.28606545541133105
-0.4909453391250054	0.3054566548507148
-0.4908843039687554	0.32351539261391304
-0.4908232688125054	0.34016288168255215
-0.4907622336562554	0.3553262873965693
-0.4907011985000054	0.368939197431805
-0.4906401633437554	0.3809417795017662
-0.4905791281875054	0.39128106089846304
-0.4905180930312554	0.3999112783112926
-0.4904570578750054	0.4067939124668137
-0.4903960227187554	0.4118979090821052
-0.4903349875625054	0.4151999316642481
-0.4902739524062554	0.416684302465368
-0.4902129172500054	0.41634313221848956
-0.4901518820937554	0.4141764256967302
-0.4900908469375054	0.4101919944419063
-0.4900298117812554	0.40440545794145843
-0.4899687766250054	0.3968402060678566
-0.4899077414687554	0.3875272835871013
-0.4898467063125054	0.3765052418383175
-0.4897856711562554	0.3638200249070424
-0.4897246360000054	0.3495247363850284
-0.4896636008437554	0.333679428529372
-0.4896025656875054	0.3163508748150651
-0.4895415305312554	0.297612230950231
-0.4894804953750054	0.2775427896618594
-0.4894194602187554	0.2562276011688199
-0.4893584250625054	0.23375712966488707
-0.4892973899062554	0.21022686302902824
-0.4892363547500054	0.18573691284046373
-0.4891753195937554	0.1603915966839902
-0.4891142844375054	0.1342989540777225
-0.4890532492812554	0.10757034028574314
-0.4889922141250054	0.08031993327017639
-0.4889311789687554	0.052664213273749316
-0.4888701438125054	0.024721471062924442
-0.4888091086562554	-0.003388584691635798
-0.4887480735000054	-0.03154551147341986
-0.4886870383437554	-0.05962862450971821
-0.4886260031875054	-0.08751726954365148
-0.4885649680312554	-0.11509168874865602
-0.4885039328750054	-0.14223341038483142
-0.4884428977187554	-0.1688254915651518
-0.4883818625625054	-0.19475347790025227
-0.4883208274062554	-0.21990565153755295
-0.4882597922500054	-0.24417331385806482
-0.4881987570937554	-0.26745170232332327
-0.4881377219375054	-0.2896401540853631
-0.4880766867812554	-0.3106424608546778
-0.4880156516250054	-0.3303675730073947
-0.4879546164687554	-0.34872977672658934
-0.4878935813125054	-0.36564906424996646
-0.4878325461562554	-0.3810516488083916
-0.4877715110000054	-0.3948701127483432
-0.4877104758437554	-0.4070437243656063
-0.4876494406875054	-0.41751883824195124
-0.4875884055312554	-0.4262489704493316
-0.4875273703750054	-0.43319504791871655
-0.4874663352187554	-0.43832565131347695
-0.4874053000625054	-0.4416170699206976
-0.4873442649062554	-0.44305343505972183
-0.4872832297500054	-0.4426268046242521
-0.4872221945937554	-0.4403371992887503
-0.4871611594375054	-0.43619259422001366
-0.4871001242812554	-0.43020889521536954
-0.4870390891250054	-0.42240989507181975
-0.4869780539687554	-0.41282714084944105
-0.4869170188125054	-0.4014998266078868
-0.4868559836562554	-0.3884746474347944
-0.4867949485000054	-0.3738055493850097
-0.4867339133437554	-0.35755354990911054
-0.4866728781875054	-0.33978649443185593
-0.4866118430312554	-0.3205786916564411
-0.4865508078750054	-0.3000106758236081
-0.4864897727187554	-0.2781688656580019
-0.4864287375625054	-0.25514511195503004
-0.4863677024062554	-0.23103641105041756
-0.4863066672500054	-0.20594443966404352
-0.4862456320937554	-0.17997511031731392
-0.4861845969375054	-0.15323816573181476
-0.4861235617812554	-0.12584665485282553
-0.4860625266250054	-0.0979165085944252
-0.4860014914687554	-0.06956599266208288
-0.4859404563125054	-0.04091521889565295
-0.4858794211562554	-0.012085675574167619
-0.4858183860000054	0.016800385789129058
-0.4857573508437554	0.04562038510363065
-0.4856963156875054	0.0742519616031834
-0.4856352805312554	0.10257357614795094
-0.4855742453750054	0.13046488204291545
-0.4855132102187554	0.157807389551644
-0.4854521750625054	0.18448491248752114
-0.4853911399062554	0.21038400440442726
-0.4853301047500054	0.23539459173560115
-0.4852690695937554	0.2594103304095835
-0.4852080344375054	0.28232908576403926
-0.4851469992812554	0.30405340012786614
-0.4850859641250054	0.3244909208905156
-0.4850249289687554	0.34355474346056636
-0.4849638938125054	0.36116383584495515
-0.4849028586562554	0.37724338448430544
-0.4848418235000054	0.39172508935844874
-0.4847807883437554	0.404547503724471
-0.4847197531875054	0.4156562390580076
-0.4846587180312554	0.4250042736265037
-0.4845976828750054	0.43255211180337755
-0.4845366477187554	0.4382679507467917
-0.4844756125625054	0.4421278611810303
-0.4844145774062554	0.4441158503707452
-0.4843535422500054	0.4442239593680172
-0.4842925070937554	0.44245229046351975
-0.4842314719375054	0.43880901288605445
-0.4841704367812554	0.43331033144180076
-0.4841094016250054	0.42598041264082803
-0.4840483664687554	0.41685129259264975
-0.4839873313125054	0.4059627406202069
-0.4839262961562554	0.39336208355213403
-0.4838652610000054	0.37910400247604814
-0.4838042258437554	0.363250329705003
-0.4837431906875054	0.345869742913828
-0.4836821555312554	0.3270374780306341
-0.4836211203750054	0.306835060722185
-0.4835600852187554	0.28534988682026896
-0.4834990500625054	0.2626748619763562
-0.4834380149062554	0.23890806936754458
-0.4833769797500054	0.21415225942240063
-0.4833159445937554	0.18851443355280328
-0.4832549094375054	0.16210544899043927
-0.4831938742812554	0.1350394392626345
-0.4831328391250054	0.10743339447372056
-0.4830718039687554	0.0794066642208845
-0.4830107688125054	0.05108035074878104
-0.4829497336562554	0.022576903862698297
-0.4828886985000054	-0.005980464142767128
-0.4828276633437554	-0.034468318652673115
-0.4827666281875054	-0.06276352269941002
-0.4827055930312554	-0.09074378350308132
-0.4826445578750054	-0.11828808749436413
-0.4825835227187554	-0.14527740440573303
-0.4825224875625054	-0.1715950847551591
-0.4824614524062554	-0.19712726889530663
-0.4824004172500054	-0.22176361845147344
-0.4823393820937554	-0.24539765654176213
-0.4822783469375054	-0.2679271427193332
-0.4822173117812554	-0.28925469085010774
-0.4821562766250054	-0.3092881359853778
-0.4820952414687554	-0.32794084235124604
-0.4820342063125054	-0.3451321854898418
-0.4819731711562554	-0.36078790100632957
-0.4819121360000054	-0.37484032448894233
-0.4818511008437554	-0.38722875729000705
-0.4817900656875054	-0.397899742117874
-0.4817290305312554	-0.406807217392632
-0.4816679953750054	-0.41391280853967
-0.4816069602187554	-0.4191859576661403
-0.4815459250625054	-0.42260402471046554
-0.4814848899062554	-0.4241524752429141
-0.4814238547500054	-0.42382485648984897
-0.4813628195937554	-0.4216228694483694
-0.4813017844375054	-0.4175563984023311
-0.4812407492812554	-0.41164338035303855
-0.4811797141250054	-0.40390982856375734
-0.4811186789687554	-0.39438966880234494
-0.4810576438125054	-0.3831245762379257
-0.4809966086562554	-0.37016388594764216
-0.4809355735000054	-0.35556426202726976
-0.4808745383437554	-0.3393895525342933
-0.4808135031875054	-0.3217104757200943
-0.4807524680312554	-0.30260430100357516
-0.4806914328750054	-0.28215455980715815
-0.4806303977187554	-0.26045062559728405
-0.4805693625625054	-0.2375874228576371
-0.4805083274062554	-0.21366487069742404
-0.4804472922500054	-0.18878760573940653
-0.4803862570937554	-0.1630644805909042
-0.4803252219375054	-0.13660795979408236
-0.4802641867812554	-0.10953387681856916
-0.4802031516250054	-0.08196073451450615
-0.4801421164687554	-0.05400926886065829
-0.4800810813125054	-0.025801936043528605
-0.4800200461562554	0.002537714130165958
-0.4799590110000054	0.030885348247071707
-0.4798979758437554	0.05911668349061326
-0.4798369406875054	0.08710788545423204
-0.4797759055312554	0.11473594078792407
-0.4797148703750054	0.14187958382849855
-0.4796538352187554	0.16841946322356594
-0.4795928000625054	0.19423876320922556
-0.4795317649062554	0.21922391348532289
-0.4794707297500054	0.24326474552703292
-0.4794096945937554	0.26625524315336946
-0.4793486594375054	0.28809391508454135
-0.4792876242812554	0.3086841656947188
-0.4792265891250054	0.32793487140009936
-0.4791655539687554	0.34576063655583666
-0.4791045188125054	0.3620822491162984
-0.4790434836562554	0.376827018134118
-0.4789824485000054	0.389929065467354
-0.4789214133437554	0.4013296429835412
-0.4788603781875054	0.4109773778194746
-0.4787993430312554	0.41882852996785935
-0.4787383078750054	0.4248471316230836
-0.4786772727187554	0.4290051928446704
-0.4786162375625054	0.43128283785648536
-0.4785552024062554	0.43166834208709165
-0.4784941672500054	0.43015823501030903
-0.4784331320937554	0.4267573136931546
-0.4783720969375054	0.42147861429278394
-0.4783110617812554	0.4143433535860715
-0.4782500266250054	0.4053808794259401
-0.4781889914687554	0.3946285014336675
-0.4781279563125054	0.3821313575851447
-0.4780669211562554	0.36794224696982497
-0.4780058860000054	0.3521213206447805
-0.4779448508437554	0.3347359500591403
-0.4778838156875054	0.31586033384458245
-0.4778227805312554	0.2955751781456727
-0.4777617453750054	0.2739674909564445
-0.4777007102187554	0.2511300092676739
-0.4776396750625054	0.22716088669621937
-0.4775786399062554	0.20216338917529442
-0.4775176047500054	0.17624521049371417
-0.4774565695937554	0.14951816137508114
-0.4773955344375054	0.12209773656919568
-0.4773344992812554	0.09410241335653872
-0.4772734641250054	0.06565333224278919
-0.4772124289687554	0.036873680544577625
-0.4771513938125054	0.007888163058929634
-0.4770903586562554	-0.021177504746319357
-0.4770293235000054	-0.050197224474252504
-0.4769682883437554	-0.07904492598469844
-0.4769072531875054	-0.10759528805322391
-0.4768462180312554	-0.1357241315983549
-0.4767851828750054	-0.16330899937059634
-0.4767241477187554	-0.19022985248588517
-0.4766631125625054	-0.21636929428222385
-0.4766020774062554	-0.24161331115725784
-0.4765410422500054	-0.26585176246014497
-0.4764800070937554	-0.2889787144261462
-0.4764189719375054	-0.31089304684450103
-0.4763579367812554	-0.3314988476720127
-0.4762969016250054	-0.3507058167280876
-0.4762358664687554	-0.36842965648623427
-0.4761748313125054	-0.3845925309305747
-0.4761137961562554	-0.3991232850719942
-0.4760527610000054	-0.41195780095208934
-0.4759917258437554	-0.4230393801817639
-0.4759306906875054	-0.4323188199666143
-0.4758696555312554	-0.43975475966160976
-0.4758086203750054	-0.4453138558815431
-0.4757475852187554	-0.44897085109830714
-0.4756865500625054	-0.45070878180892754
-0.4756255149062554	-0.4505190121983633
-0.4755644797500054	-0.4484012663579876
-0.4755034445937554	-0.44436366492969
-0.4754424094375054	-0.43842267860430867
-0.4753813742812554	-0.4306030593622481
-0.4753203391250054	-0.4209377312410397
-0.4752593039687554	-0.40946767994392724
-0.4751982688125054	-0.3962417505013656
-0.4751372336562554	-0.3813164235269644
-0.4750761985000054	-0.3647556406790633
-0.4750151633437554	-0.3466304556391127
-0.4749541281875054	-0.3270187494361031
-0.4748930930312554	-0.30600494171672177
-0.4748320578750054	-0.2836795450878453
-0.4747710227187554	-0.2601388427023768
-0.4747099875625054	-0.2354844327505319
-0.4746489524062554	-0.20982280533539477
-0.4745879172500054	-0.18326486825609709
-0.4745268820937554	-0.15592546845220204
-0.4744658469375054	-0.12792291636520542
-0.4744048117812554	-0.09937842461381143
-0.4743437766250054	-0.07041563690458916
-0.4742827414687554	-0.04115999939227155
-0.4742217063125054	-0.011738366851475222
-0.4741606711562554	0.01772171335226378
-0.4740996360000054	0.04709251101758046
-0.4740386008437554	0.07624652099768625
-0.4739775656875054	0.10505730679680217
-0.4739165305312554	0.13339978349401024
-0.4738554953750054	0.1611509085089293
-0.4737944602187554	0.18819020842970333
-0.4737334250625054	0.21440020432344956
-0.4736723899062554	0.23966714439429784
-0.4736113547500054	0.2638812110896092
-0.4735503195937554	0.2869372482328018
-0.4734892844375054	0.308735146266941
-0.4734282492812554	0.3291801485842396
-0.4733672141250054	0.34818354192096734
-0.4733061789687554	0.3656627733898396
-0.4732451438125054	0.3815419643758203
-0.4731841086562554	0.39575225082194726
-0.4731230735000054	0.40823197415016355
-0.4730620383437554	0.41892709407329803
-0.4730010031875054	0.4277913267116506
-0.4729399680312554	0.43478639258718543
-0.4728789328750054	0.4398821808003011
-0.4728178977187554	0.4430568863873928
-0.4727568625625054	0.444297103908697
-0.4726958274062554	0.4435978784220974
-0.4726347922500054	0.4409627695156207
-0.4725737570937554	0.4364037856543923
-0.4725127219375054	0.42994137942238103
-0.4724516867812554	0.4216043352217029
-0.4723906516250054	0.411429651336034
-0.4723296164687554	0.39946240214643025
-0.4722685813125054	0.3857554909569585
-0.4722075461562554	0.37036949716599105
-0.4721465110000054	0.35337233567897214
-0.4720854758437554	0.3348390033301081
-0.4720244406875054	0.3148512964821927
-0.4719634055312554	0.2934972987094053
-0.4719023703750054	0.270871208430253
-0.4718413352187554	0.2470728067908077
-0.4717803000625054	0.2222069208255173
-0.4717192649062554	0.19638326611372495
-0.4716582297500054	0.16971564733659397
-0.4715971945937554	0.1423215922438555
-0.4715361594375054	0.11432197546858648
-0.4714751242812554	0.08584016425723075
-0.4714140891250054	0.05700180020137893
-0.4713530539687554	0.02793409812277999
-0.4712920188125054	-0.0012347922695296234
-0.4712309836562554	-0.030376128335085857
-0.4711699485000054	-0.059361342751889735
-0.4711089133437554	-0.08806252148907336
-0.4710478781875054	-0.11635296155536586
-0.4709868430312554	-0.14410775403891532
-0.4709258078750054	-0.1712043292961785
-0.4708647727187554	-0.19752299354045344
-0.4708037375625054	-0.2229474181854543
-0.4707427024062554	-0.24736527932125343
-0.4706816672500054	-0.2706685713294966
-0.4706206320937554	-0.2927542002287941
-0.4705595969375054	-0.31352450074103067
-0.4704985617812554	-0.3328874567876165
-0.4704375266250054	-0.3507573242076485
-0.4703764914687554	-0.36705490765357257
-0.4703154563125054	-0.3817079060916839
-0.4702544211562554	-0.3946512993121904
-0.4701933860000054	-0.4058275349664457
-0.4701323508437554	-0.41518691216578935
-0.4700713156875054	-0.4226877028925821
-0.4700102805312554	-0.42829635666518356
-0.4699492453750054	-0.43198771986359763
-0.4698882102187554	-0.4337450609793415
-0.4698271750625054	-0.4335601971332257
-0.4697661399062554	-0.4314335297117868
-0.4697051047500054	-0.42737404373286264
