Time	Frequency
-0.5000197890937486	0.02645922091404625
-0.49995875393749856	0.0472570870186775
-0.49989771878124856	0.06792033704380666
-0.49983668362499856	0.08838286956315392
-0.49977564846874856	0.10857927180512864
-0.49971461331249856	0.12844485835919436
-0.49965357815624856	0.14791599331550778
-0.49959254299999856	0.16693027954631137
-0.49953150784374856	0.1854266522405266
-0.49947047268749856	0.2033457610609374
-0.49940943753124856	0.2206299635541635
-0.49934840237499856	0.23722360578876003
-0.49928736721874856	0.2530732750706939
-0.49922633206249856	0.2681277528312764
-0.49916529690624856	0.2823384039856038
-0.49910426174999856	0.2956592396830354
-0.49904322659374856	0.3080469723371233
-0.49898219143749856	0.3194613595391931
-0.49892115628124856	0.32986514835154024
-0.49886012112499856	0.33922426449463033
-0.49879908596874856	0.34750797386137283
-0.49873805081249856	0.35468887122338844
-0.49867701565624856	0.3607430622807103
-0.49861598049999856	0.3656502071194313
-0.49855494534374856	0.3693935683459525
-0.49849391018749856	0.37196010414636665
-0.49843287503124856	0.3733404855641372
-0.49837183987499856	0.3735291304642161
-0.49831080471874856	0.37252424014797186
-0.49824976956249856	0.37032778787533416
-0.49818873440624856	0.36694552264681435
-0.49812769924999856	0.36238696186053126
-0.49806666409374856	0.35666534598921856
-0.49800562893749856	0.3497976159273001
-0.49794459378124856	0.3418043500144847
-0.49788355862499856	0.332709709364564
-0.49782252346874856	0.3225413568988645
-0.49776148831249856	0.3113303742650655
-0.49770045315624856	0.2991111759626178
-0.49763941799999856	0.2859213748950988
-0.49757838284374856	0.2718017016517155
-0.49751734768749856	0.2567958554382886
-0.49745631253124856	0.24095035611971893
-0.49739527737499856	0.22431443869291892
-0.49733424221874856	0.20693986641087897
-0.49727320706249856	0.18888075136508348
-0.49721217190624856	0.17019345809158462
-0.49715113674999856	0.15093634285231441
-0.49709010159374856	0.13116959734625797
-0.49702906643749856	0.11095513603242957
-0.49696803128124856	0.09035623034493065
-0.49690699612499856	0.06943749448803338
-0.49684596096874856	0.04826459124048367
-0.49678492581249856	0.026903951170051645
-0.49672389065624856	0.005422773625571645
-0.49666285549999856	-0.016111407652098952
-0.49660182034374856	-0.0376308443462517
-0.49654078518749856	-0.059067713842043214
-0.49647975003124856	-0.08035447847726708
-0.49641871487499856	-0.10142403011184817
-0.49635767971874856	-0.12220984607654263
-0.49629664456249856	-0.14264629994489691
-0.49623560940624856	-0.16266883158532203
-0.49617457424999856	-0.18221411534197698
-0.49611353909374856	-0.2012203189204324
-0.49605250393749856	-0.21962724782863935
-0.49599146878124856	-0.237376601048192
-0.49593043362499856	-0.2544120844730079
-0.49586939846874856	-0.27067963378656246
-0.49580836331249856	-0.2861275946094493
-0.49574732815624856	-0.3007068348677513
-0.49568629299999856	-0.31437098358025134
-0.49562525784374856	-0.32707649240823805
-0.49556422268749856	-0.33878283192822756
-0.49550318753124856	-0.34945262054016407
-0.49544215237499856	-0.3590516989129662
-0.49538111721874856	-0.3675492952028117
-0.49532008206249856	-0.37491809127253145
-0.49525904690624856	-0.38113432497337907
-0.49519801174999856	-0.38617785015304273
-0.49513697659374856	-0.3900322235687401
-0.49507594143749856	-0.39268475897955624
-0.49501490628124856	-0.3941265332276631
-0.49495387112499856	-0.39435247557730196
-0.49489283596874856	-0.39336133150528557
-0.49483180081249856	-0.3911556946428763
-0.49477076565624856	-0.38774200886209215
-0.49470973049999856	-0.3831305177083741
-0.49464869534374856	-0.37733527533795813
-0.49458766018749856	-0.37037406133422945
-0.49452662503124856	-0.36226836411464003
-0.49446558987499856	-0.35304329053589245
-0.49440455471874856	-0.3427274900600835
-0.49434351956249856	-0.331353079016701
-0.49428248440624856	-0.3189555294296376
-0.49422144924999856	-0.3055735600124753
-0.49416041409374856	-0.29124900431595535
-0.49409937893749856	-0.2760267208525253
-0.49403834378124856	-0.2599543902191508
-0.49397730862499856	-0.24308240013249452
-0.49391627346874856	-0.22546371150108538
-0.49385523831249856	-0.207153633573275
-0.49379420315624856	-0.18820967514442166
-0.49373316799999856	-0.16869140385748427
-0.49367213284374856	-0.1486601920029747
-0.49361109768749856	-0.12817902826675545
-0.49355006253124856	-0.1073124100129522
-0.49348902737499856	-0.0861260176434628
-0.49342799221874856	-0.06468653659194604
-0.49336695706249856	-0.04306156765354379
-0.49330592190624856	-0.021319195630447936
-0.49324488674999856	0.00047205632929736937
-0.49318385159374856	0.022243436537408064
-0.49312281643749856	0.04392638496469963
-0.49306178128124856	0.06545248031445138
-0.49300074612499856	0.08675382901285213
-0.49293971096874856	0.10776328225755807
-0.49287867581249856	0.12841455104619937
-0.49281764065624856	0.14864249904711113
-0.49275660549999856	0.16838331907270623
-0.49269557034374856	0.18757474934800186
-0.49263453518749856	0.20615625347684594
-0.49257350003124856	0.22406923956287494
-0.49251246487499856	0.24125722315760023
-0.49245142971874856	0.2576660200574524
-0.49239039456249856	0.2732439249968119
-0.49232935940624856	0.28794185810202627
-0.49226832424999856	0.30171353755157304
-0.49220728909374856	0.31451564570129936
-0.49214625393749856	0.3263079031655656
-0.49208521878124856	0.3370532858388286
-0.49202418362499856	0.34671808352315214
-0.49196314846874856	0.35527200213774435
-0.49190211331249856	0.36268833356705527
-0.49184107815624856	0.368943947203572
-0.49178004299999856	0.374019438652765
-0.49171900784374856	0.37789915224389165
-0.49165797268749856	0.3805712490905907
-0.49159693753124856	0.38202774460616773
-0.49153590237499856	0.38226452460433913
-0.49147486721874856	0.3812813813088314
-0.49141383206249856	0.37908198559492956
-0.49135279690624856	0.3756739078571746
-0.49129176174999856	0.37106857130519794
-0.49123072659374856	0.36528122846767125
-0.49116969143749856	0.3583309091404963
-0.49110865628124856	0.35024036778551637
-0.49104762112499856	0.3410360002972904
-0.49098658596874856	0.33074776864017635
-0.49092555081249856	0.3194091180998872
-0.49086451565624856	0.30705682595740225
-0.49080348049999856	0.29373096287563055
-0.49074244534374856	0.2794746828073429
-0.49068141018749856	0.26433412419870744
-0.49062037503124856	0.24835831696950555
-0.49055933987499856	0.2315988851149498
-0.49049830471874856	0.21411003872513998
-0.49043726956249856	0.19594831704989188
-0.49037623440624856	0.17717239383942945
-0.49031519924999856	0.1578429590864732
-0.49025416409374856	0.13802245357960274
-0.49019312893749856	0.11777494516753702
-0.49013209378124856	0.0971658105721032
-0.49007105862499856	0.07626166108720472
-0.49001002346874856	0.055130075476133224
-0.48994898831249856	0.03383926600176063
-0.48988795315624856	0.01245809969485391
-0.48982691799999856	-0.008944307686729798
-0.48976588284374856	-0.030298822680130098
-0.48970484768749856	-0.05153633627656765
-0.48964381253124856	-0.07258818673483124
-0.48958277737499856	-0.09338629525359875
-0.48952174221874856	-0.11386331157901547
-0.48946070706249856	-0.13395299423418913
-0.48939967190624856	-0.15359029366115334
-0.48933863674999856	-0.17271157214822164
-0.48927760159374856	-0.19125491816331214
-0.48921656643749856	-0.20916017453817104
-0.48915553128124856	-0.22636927015563704
-0.48909449612499856	-0.24282641032661548
-0.48903346096874856	-0.2584780696130052
-0.48897242581249856	-0.273273457344739
-0.48891139065624856	-0.28716445224760284
-0.48885035549999856	-0.3001057769028644
-0.48878932034374856	-0.3120553590591525
-0.48872828518749856	-0.32297415383552175
-0.48866725003124856	-0.33282648786264224
-0.48860621487499856	-0.34158016769876026
-0.48854517971874856	-0.34920643084011294
-0.48848414456249856	-0.35568020554346846
-0.48842310940624856	-0.3609801405547299
-0.48836207424999856	-0.36508860571809454
-0.48830103909374856	-0.3679918533088245
-0.48824000393749856	-0.36968002927875054
-0.48817896878124856	-0.3701471435491412
-0.48811793362499856	-0.3693911935938498
-0.48805689846874856	-0.36741411777219707
-0.48799586331249856	-0.364221767485233
-0.48793482815624856	-0.3598239523520528
-0.48787379299999856	-0.35423437069749397
-0.48781275784374856	-0.34747055898745294
-0.48775172268749856	-0.3395538759729892
-0.48769068753124856	-0.3305094038084973
-0.48762965237499856	-0.32036587273118267
-0.48756861721874856	-0.30915559327460246
-0.48750758206249856	-0.29691431934525514
-0.48744654690624856	-0.2836811684426754
-0.48738551174999856	-0.26949847826822615
-0.48732447659374856	-0.2544116676532141
-0.48726344143749856	-0.23846911464114268
-0.48720240628124856	-0.22172198148431174
-0.48714137112499856	-0.20422406098780133
-0.48708033596874856	-0.1860315876671253
-0.48701930081249856	-0.167203106420272
-0.48695826565624856	-0.14779921589673548
-0.48689723049999856	-0.1278824203547709
-0.48683619534374856	-0.10751695119252966
-0.48677516018749856	-0.08676845381339966
-0.48671412503124856	-0.06570394130668424
-0.48665308987499856	-0.04439143844622916
-0.48659205471874856	-0.022899798031810564
-0.48653101956249856	-0.0012985542020563286
-0.48646998440624856	0.020342407860086818
-0.48640894924999856	0.04195300026987599
-0.48634791409374856	0.0634632254284132
-0.48628687893749856	0.0848033042903856
-0.48622584378124856	0.10590398536328792
-0.48616480862499856	0.1266967958537545
-0.48610377346874856	0.14711411248507203
-0.48604273831249856	0.16708952199581195
-0.48598170315624856	0.18655803979233138
-0.48592066799999856	0.20545619563301487
-0.48585963284374856	0.22372232972401992
-0.48579859768749856	0.2412968214251869
-0.48573756253124856	0.25812220228984173
-0.48567652737499856	0.27414337508178965
-0.48561549221874856	0.28930781929817445
-0.48555445706249856	0.30356573499268424
-0.48549342190624856	0.3168701880633207
-0.48543238674999856	0.3291773153125915
-0.48537135159374856	0.3404464221107275
-0.48531031643749856	0.3506401256951999
-0.48524928128124856	0.3597245058821363
-0.48518824612499856	0.367669160339145
-0.48512721096874856	0.3744473651412063
-0.48506617581249856	0.3800361421648158
-0.48500514065624856	0.3844162926982354
-0.48494410549999856	0.3875725307790916
-0.48488307034374856	0.38949350857596576
-0.48482203518749856	0.39017181617586394
-0.48476100003124856	0.38960407034016903
-0.48469996487499856	0.38779089844835457
-0.48463892971874856	0.384736918511104
-0.48457789456249856	0.3804507709617385
-0.48451685940624856	0.37494506291160934
-0.48445582424999856	0.36823632833473113
-0.48439478909374856	0.36034500498509836
-0.48433375393749856	0.35129533672269986
-0.48427271878124856	0.34111531377770865
-0.48421168362499856	0.3298366055222549
-0.48415064846874856	0.3174944111323769
-0.48408961331249856	0.304127381822735
-0.48402857815624856	0.2897775266725148
-0.48396754299999856	0.2744899982642308
-0.48390650784374856	0.2583130120662177
-0.48384547268749856	0.24129772384202977
-0.48378443753124856	0.2234979234683748
-0.48372340237499856	0.2049700414598539
-0.48366236721874856	0.18577289323935625
-0.48360133206249856	0.16596737907183134
-0.48354029690624856	0.14561651688364133
-0.48347926174999856	0.12478506385791921
-0.48341822659374856	0.10353933619674345
-0.48335719143749856	0.08194707388116333
-0.48329615628124856	0.06007713335438106
-0.48323512112499856	0.037999317293325514
-0.48317408596874856	0.01578413967363494
-0.48311305081249856	-0.006497410233373521
-0.48305201565624856	-0.028774093891769627
-0.48299098049999856	-0.05097465356813787
-0.48292994534374856	-0.07302802334465332
-0.48286891018749856	-0.09486357904186402
-0.48280787503124856	-0.11641139279316311
-0.48274683987499856	-0.13760238345828416
-0.48268580471874856	-0.15836859710752207
-0.48262476956249856	-0.1786434529297307
-0.48256373440624856	-0.19836187565288046
-0.48250269924999856	-0.2174605348479017
-0.48244166409374856	-0.2358781562449811
-0.48238062893749856	-0.2535555515965758
-0.48231959378124856	-0.2704358679294145
-0.48225855862499856	-0.2864649216564154
-0.48219752346874856	-0.30159111596955596
-0.48213648831249856	-0.31576578983094905
-0.48207545315624856	-0.3289433629673246
-0.48201441799999856	-0.3410813930726416
-0.48195338284374856	-0.3521408091772375
-0.48189234768749856	-0.36208597846668045
-0.48183131253124856	-0.3708848728580472
-0.48177027737499856	-0.37850911697374956
-0.48170924221874856	-0.3849341344765296
-0.48164820706249856	-0.3901392003002824
-0.48158717190624856	-0.39410751161733804
-0.48152613674999856	-0.3968262635960782
-0.48146510159374856	-0.39828665091845006
-0.48140406643749856	-0.39848395716856216
-0.48134303128124856	-0.39741751615808774
-0.48128199612499856	-0.3950907464022183
-0.48122096096874856	-0.39151114062931663
-0.48115992581249856	-0.3866902282281286
-0.48109889065624856	-0.38064355782226394
-0.48103785549999856	-0.37339062644155613
-0.48097682034374856	-0.36495486123571447
-0.48091578518749856	-0.35536347024421405
-0.48085475003124856	-0.3446474384129873
-0.48079371487499856	-0.33284140120498545
-0.48073267971874856	-0.3199834494677131
-0.48067164456249856	-0.3061151973778854
-0.48061060940624856	-0.2912814442238618
-0.48054957424999856	-0.2755301267695385
-0.48048853909374856	-0.25891224565242726
-0.48042750393749856	-0.24148149204872998
-0.48036646878124856	-0.22329427256386247
-0.48030543362499856	-0.20440946344591682
-0.48024439846874856	-0.18488815547562695
-0.48018336331249856	-0.16479353678855382
-0.48012232815624856	-0.1441906818197043
-0.48006129299999856	-0.12314629566218321
-0.48000025784374856	-0.10172852896870749
-0.47993922268749856	-0.08000677312814834
-0.47987818753124856	-0.058051373898053045
-0.47981715237499856	-0.035933499380211835
-0.47975611721874856	-0.013724804418559914
-0.47969508206249856	0.008502731358873887
-0.47963404690624856	0.030677021143680955
-0.47957301174999856	0.05272622501829311
-0.47951197659374856	0.07457880770638477
-0.47945094143749856	0.09616393134120813
-0.47938990628124856	0.1174115863903782
-0.47932887112499856	0.1382528337018946
-0.47926783596874856	0.1586201149813039
-0.47920680081249856	0.1784472952079205
-0.47914576565624856	0.19767009777819455
-0.47908473049999856	0.21622614047623417
-0.47902369534374856	0.23405519056116655
-0.47896266018749856	0.2510994366739285
-0.47890162503124856	0.26730354010492924
-0.47884058987499856	0.2826149485719398
-0.47877955471874856	0.29698396900377255
-0.47871851956249856	0.3103639907188277
-0.47865748440624856	0.3227116283768515
-0.47859644924999856	0.3339868174900707
-0.47853541409374856	0.3441530234166483
-0.47847437893749856	0.353177296212817
-0.47841334378124856	0.36103041876192515
-0.47835230862499856	0.36768698409418477
-0.47829127346874856	0.3731254692381402
-0.47823023831249856	0.3773283622244105
-0.47816920315624856	0.38028213969986097
-0.47810816799999856	0.38197736708621965
-0.47804713284374856	0.38240873900788597
-0.47798609768749856	0.3815750413354773
-0.47792506253124856	0.3794792166541862
-0.47786402737499856	0.37612832983763905
-0.47780299221874856	0.37153353499771397
-0.47774195706249856	0.36571007405158973
-0.47768092190624856	0.35867719109582696
-0.47761988674999856	0.3504580997742297
-0.47755885159374856	0.3410799015421168
-0.47749781643749856	0.3305734803276413
-0.47743678128124856	0.3189734390060195
-0.47737574612499856	0.306317948116904
-0.47731471096874856	0.2926486660988551
-0.47725367581249856	0.278010545207891
-0.47719264065624856	0.2624517577595789
-0.47713160549999856	0.24602350719058944
-0.47707057034374856	0.2287797835687428
-0.47700953518749856	0.21077739176138252
-0.47694850003124856	0.19207552644869214
-0.47688746487499856	0.1727357240783677
-0.47682642971874856	0.15282168901879717
-0.47676539456249856	0.13239892264510078
-0.47670435940624856	0.11153472378592891
-0.47664332424999856	0.0902977645954837
-0.47658228909374856	0.06875802376329043
-0.47652125393749856	0.04698650649667858
-0.47646021878124856	0.025054928211741417
-0.47639918362499856	0.0030356302006845897
-0.47633814846874856	-0.01899874582404181
-0.47627711331249856	-0.0409755054202467
-0.47621607815624856	-0.06282213478197479
-0.47615504299999856	-0.08446643116797796
-0.47609400784374856	-0.10583690677650388
-0.47603297268749856	-0.12686295792595953
-0.47597193753124856	-0.14747498124500866
-0.47591090237499856	-0.16760480287639312
-0.47584986721874856	-0.18718577013422188
-0.47578883206249856	-0.2061529764833167
-0.47572779690624856	-0.22444355642708425
-0.47566676174999856	-0.24199677655682778
-0.47560572659374856	-0.25875434359671506
-0.47554469143749856	-0.2746605308933411
-0.47548365628124856	-0.28966238695949337
-0.47542262112499856	-0.30370990587550734
-0.47536158596874856	-0.3167561729765913
-0.47530055081249856	-0.3287575874432307
-0.47523951565624856	-0.3396738930442784
-0.47517848049999856	-0.34946843822562346
-0.47511744534374856	-0.35810820527822523
-0.47505641018749856	-0.3655639538376618
-0.47499537503124856	-0.3718103434680353
-0.47493433987499856	-0.37682594841318484
-0.47487330471874856	-0.38059343221379094
-0.47481226956249856	-0.38309950560269335
-0.47475123440624856	-0.38433502920443785
-0.47469019924999856	-0.38429504994181685
-0.47462916409374856	-0.3829787787654184
-0.47456812893749856	-0.3803896375203299
-0.47450709378124856	-0.37653522482242247
-0.47444605862499856	-0.3714273082969584
-0.47438502346874856	-0.3650817685861698
-0.47432398831249856	-0.3575185819342343
-0.47426295315624856	-0.3487617231274277
-0.47420191799999856	-0.33883910173285553
-0.47414088284374856	-0.32778249887287303
-0.47407984768749856	-0.31562740319212446
-0.47401881253124856	-0.3024129669202244
-0.47395777737499856	-0.28818184569219807
-0.47389674221874856	-0.272980034965709
-0.47383570706249856	-0.25685676741627356
-0.47377467190624856	-0.23986435158728003
-0.47371363674999856	-0.22205795376223048
-0.47365260159374856	-0.20349544682470494
-0.47359156643749856	-0.1842372781094748
-0.47353053128124856	-0.16434615593640314
-0.47346949612499856	-0.14388691448414026
-0.47340846096874856	-0.12292636420283892
-0.47334742581249856	-0.10153292165504889
-0.47328639065624856	-0.07977649531515156
-0.47322535549999856	-0.05772827445334458
-0.47316432034374856	-0.035460393875623705
-0.47310328518749856	-0.013045774258392092
-0.47304225003124856	0.009442108106701663
-0.47298121487499856	0.03192951145221154
-0.47292017971874856	0.05434266098448086
-0.47285914456249856	0.07660794443144482
-0.47279810940624856	0.09865221702832694
-0.47273707424999856	0.12040298743467504
-0.47267603909374856	0.14178870923012749
-0.47261500393749856	0.16273898471308929
-0.47255396878124856	0.1831847354541824
-0.47249293362499856	0.20305861380495285
-0.47243189846874856	0.22229501871174873
-0.47237086331249856	0.24083039982877574
-0.47230982815624856	0.25860354287022697
-0.47224879299999856	0.2755556048103187
-0.47218775784374856	0.2916304613692643
-0.47212672268749856	0.3067748190461542
-0.47206568753124856	0.3209383931912231
-0.47200465237499856	0.33407410513448826
-0.47194361721874856	0.3461382074514316
-0.47188258206249856	0.3570904589882838
-0.47182154690624856	0.3668942224103121
-0.47176051174999856	0.3755166308863909
-0.47169947659374856	0.3829286677392302
-0.47163844143749856	0.3891052588446804
-0.47157740628124856	0.39402539470811676
-0.47151637112499856	0.39767216481441214
-0.47145533596874856	0.4000328197548685
-0.47139430081249856	0.4010988455275644
-0.47133326565624856	0.4008659636610886
-0.47127223049999856	0.39933414551991103
-0.47121119534374856	0.3965076476210723
-0.47115016018749856	0.3923949674182592
-0.47108912503124856	0.38700882392538954
-0.47102808987499856	0.3803661406284318
-0.47096705471874856	0.37248795976879395
-0.47090601956249856	0.36339939559459816
-0.47084498440624856	0.35312955966010784
-0.47078394924999856	0.34171143786737485
-0.47072291409374856	0.3291818196353125
-0.47066187893749856	0.3155811559178507
-0.47060084378124856	0.30095344381214506
-0.47053980862499856	0.2853460550415187
-0.47047877346874856	0.2688096126327255
-0.47041773831249856	0.2513978427893786
