Time	Frequency
-0.500011288312507	0.3201206394649612
-0.49995025315625696	0.33532831822115144
-0.49988921800000696	0.3491918981935746
-0.49982818284375696	0.36165496306552625
-0.49976714768750696	0.37266662111357485
-0.49970611253125696	0.38218179663981505
-0.49964507737500696	0.39016128800406313
-0.49958404221875696	0.3965720043957687
-0.49952300706250696	0.40138709670601813
-0.49946197190625696	0.4045860368123009
-0.49940093675000696	0.40615472775540795
-0.49933990159375696	0.40608555066925756
-0.49927886643750696	0.40437741037668784
-0.49921783128125696	0.4010357364269074
-0.49915679612500696	0.3960724601030625
-0.49909576096875696	0.3895059821979132
-0.49903472581250696	0.38136110419775654
-0.49897369065625696	0.37166891888937775
-0.49891265550000696	0.360466700804636
-0.49885162034375696	0.34779778206159867
-0.49879058518750696	0.3337113253482418
-0.49872955003125696	0.31826220588671983
-0.49866851487500696	0.3015107563710889
-0.49860747971875696	0.2835224960962467
-0.49854644456250696	0.2643679920435425
-0.49848540940625696	0.2441224216876423
-0.49842437425000696	0.22286538520025526
-0.49836333909375696	0.20068062107108395
-0.49830230393750696	0.1776555278554094
-0.49824126878125696	0.15388096962347356
-0.49818023362500696	0.12945085780124452
-0.49811919846875696	0.10446176145552315
-0.49805816331250696	0.07901255276499143
-0.49799712815625696	0.05320399988559352
-0.49793609300000696	0.027138409969796388
-0.49787505784375696	0.0009191370893806628
-0.49781402268750696	-0.02534974461769811
-0.49775298753125696	-0.05156387698781385
-0.49769195237500696	-0.07761907511534678
-0.49763091721875696	-0.103411667705699
-0.49756988206250696	-0.12883898135966215
-0.49750884690625696	-0.15379970368573567
-0.49744781175000696	-0.17819429321557864
-0.49738677659375696	-0.2019253895312804
-0.49732574143750696	-0.224898212279739
-0.49726470628125696	-0.24702089528279061
-0.49720367112500696	-0.2682048881418519
-0.49714263596875696	-0.28836532900824774
-0.49708160081250696	-0.30742130261908224
-0.49702056565625696	-0.3252962934139897
-0.49695953050000696	-0.34191836627611694
-0.49689849534375696	-0.357220500183295
-0.49683746018750696	-0.3711409378468013
-0.49677642503125696	-0.3836232762374901
-0.49671538987500696	-0.3946168240504462
-0.49665435471875696	-0.4040767759300688
-0.49659331956250696	-0.41196434742898674
-0.49653228440625696	-0.4182469941649453
-0.49647124925000696	-0.42289849818894415
-0.49641021409375696	-0.42589911463512364
-0.49634917893750696	-0.427235625764391
-0.49628814378125696	-0.4269013993203184
-0.49622710862500696	-0.4248964458940518
-0.49616607346875696	-0.4212273890075544
-0.49610503831250696	-0.41590746034903125
-0.49604400315625696	-0.4089564489886429
-0.49598296800000696	-0.4004006345798128
-0.49592193284375696	-0.39027265463011607
-0.49586089768750696	-0.37861142379335827
-0.49579986253125696	-0.36546196131455927
-0.49573882737500696	-0.3508751818358058
-0.49567779221875696	-0.3349077748568997
-0.49561675706250696	-0.3176219043298689
-0.49555572190625696	-0.29908500366499174
-0.49549468675000696	-0.27936951072193095
-0.49543365159375696	-0.25855256123284626
-0.49537261643750696	-0.2367157242485822
-0.49531158128125696	-0.21394461003445076
-0.49525054612500696	-0.19032861525487615
-0.49518951096875696	-0.16596052678675852
-0.49512847581250696	-0.1409361191969275
-0.49506744065625696	-0.11535384871582018
-0.49500640550000696	-0.08931442374582094
-0.49494537034375696	-0.06292039483131198
-0.49488433518750696	-0.036275763872300394
-0.49482330003125696	-0.009485572590435996
-0.49476226487500696	0.017344534640725037
-0.49470122971875696	0.04410866859476008
-0.49464019456250696	0.07070125316031657
-0.49457915940625696	0.09701728884666216
-0.49451812425000696	0.12295278670828724
-0.49445708909375696	0.14840543117236862
-0.49439605393750696	0.17327459587402413
-0.49433501878125696	0.19746197509495358
-0.49427398362500696	0.2208720863367162
-0.49421294846875696	0.24341233756397038
-0.49415191331250696	0.26499363299253986
-0.49409087815625696	0.28553072277335956
-0.49402984300000696	0.3049424064934258
-0.49396880784375696	0.32315195566794847
-0.49390777268750696	0.34008746194591954
-0.49384673753125696	0.3556820106147845
-0.49378570237500696	0.3698740004121231
-0.49372466721875696	0.38260746872803486
-0.49366363206250696	0.3938321831789249
-0.49360259690625696	0.4035039141646202
-0.49354156175000696	0.4115846551695748
-0.49348052659375696	0.41804267638838427
-0.49341949143750696	0.42285272295557735
-0.49335845628125696	0.4259961224516684
-0.49329742112500696	0.4274608167200504
-0.49323638596875696	0.42724143975420603
-0.49317535081250696	0.42533935087725444
-0.49311431565625696	0.42176260920357317
-0.49305328050000696	0.41652595103490914
-0.49299224534375696	0.40965075125121037
-0.49293121018750696	0.4011649023142549
-0.49287017503125696	0.3911027450341282
-0.49280913987500696	0.37950491177492923
-0.49274810471875696	0.3664181603576797
-0.49268706956250696	0.35189521198789125
-0.49262603440625696	0.3359945153420472
-0.49256499925000696	0.31878004877000027
-0.49250396409375696	0.30032101028697167
-0.49244292893750696	0.2806916120883581
-0.49238189378125696	0.2599707439745757
-0.49232085862500696	0.23824162583731023
-0.49225982346875696	0.21559158461033165
-0.49219878831250696	0.19211157697788167
-0.49213775315625696	0.16789589705436667
-0.49207671800000696	0.14304183174072208
-0.49201568284375696	0.11764915246670389
-0.49195464768750696	0.09181985533844632
-0.49189361253125696	0.06565767918921944
-0.49183257737500696	0.03926763439308586
-0.49177154221875696	0.012755771489391807
-0.49171050706250696	-0.013771475712291292
-0.49164947190625696	-0.040207612435492535
-0.49158843675000696	-0.06644635936745921
-0.49152740159375696	-0.09238241835048966
-0.49146636643750696	-0.11791161435001193
-0.49140533128125696	-0.14293134543309272
-0.49134429612500696	-0.16734116669460608
-0.49128326096875696	-0.19104300843464803
-0.49122222581250696	-0.2139416694703657
-0.49116119065625696	-0.23594513712948045
-0.49110015550000696	-0.2569650416452211
-0.49103912034375696	-0.276916969357647
-0.49097808518750696	-0.29572071603047295
-0.49091705003125696	-0.3133007968765966
-0.49085601487500696	-0.3295866147263017
-0.49079497971875696	-0.34451271609717865
-0.49073394456250696	-0.35801921784337776
-0.49067290940625696	-0.37005190349625255
-0.49061187425000696	-0.38056245998976773
-0.49055083909375696	-0.38950877855777266
-0.49048980393750696	-0.3968549955500218
-0.49042876878125696	-0.4025717076542698
-0.49036773362500696	-0.4066361080752578
-0.49030669846875696	-0.4090320197398226
-0.49024566331250696	-0.40975001999462657
-0.49018462815625696	-0.40878745067861433
-0.49012359300000696	-0.4061484355817827
-0.49006255784375696	-0.40184387998285853
-0.49000152268750696	-0.395891411006513
-0.48994048753125696	-0.3883153181234879
-0.48987945237500696	-0.379146462149391
-0.48981841721875696	-0.3684221435837145
-0.48975738206250696	-0.3561859617454646
-0.48969634690625696	-0.3424876426949744
-0.48963531175000696	-0.32738282634742144
-0.48957427659375696	-0.3109328768297311
-0.48951324143750696	-0.29320460166080337
-0.48945220628125696	-0.2742699867460041
-0.48939117112500696	-0.25420596546254076
-0.48933013596875696	-0.23309402857703554
-0.48926910081250696	-0.21101992158652405
-0.48920806565625696	-0.1880733719207371
-0.48914703050000696	-0.16434762559710936
-0.48908599534375696	-0.1399391084867603
-0.48902496018750696	-0.11494710109810825
-0.48896392503125696	-0.08947322417492079
-0.48890288987500696	-0.0636211316342464
-0.48884185471875696	-0.03749604710322912
-0.48878081956250696	-0.011204305315390016
-0.48871978440625696	0.015146947829275515
-0.48865874925000696	0.041450395510423794
-0.48859771409375696	0.06759878665191328
-0.48853667893750696	0.09348540275436969
-0.48847564378125696	0.11900469666326106
-0.48841460862500696	0.14405240547697556
-0.48835357346875696	0.1685261370226326
-0.48829253831250696	0.1923258815678925
-0.48823150315625696	0.2153541984934591
-0.48817046800000696	0.2375167513103993
-0.48810943284375696	0.2587226802263557
-0.48804839768750696	0.2788849249264268
-0.48798736253125696	0.29792064300108106
-0.48792632737500696	0.3157514370978432
-0.48786529221875696	0.33230382051107904
-0.48780425706250696	0.3475094279741923
-0.48774322190625696	0.3613052472329341
-0.48768218675000696	0.37363402897693415
-0.48762115159375696	0.384444376797822
-0.48756011643750696	0.3936910205800776
-0.48749908128125696	0.40133500967700275
-0.48743804612500696	0.4073438544947191
-0.48737701096875696	0.4116916732726039
-0.48731597581250696	0.4143592773477306
-0.48725494065625696	0.4153343013954433
-0.48719390550000696	0.41461120558692144
-0.48713287034375696	0.41219132389221486
-0.48707183518750696	0.40808288158642886
-0.48701080003125696	0.4023009320022398
-0.48694976487500696	0.3948673181136347
-0.48688872971875696	0.3858105955707298
-0.48682769456250696	0.3751659061417025
-0.48676665940625696	0.3629748366862555
-0.48670562425000696	0.3492852960682295
-0.48664458909375696	0.33415125472157603
-0.48658355393750696	0.31763258221480406
-0.48652251878125696	0.29979484356626956
-0.48646148362500696	0.28070889174012237
-0.48640044846875696	0.26045076997419525
-0.48633941331250696	0.23910132877686596
-0.48627837815625696	0.21674578393527222
-0.48621734300000696	0.1934736039518323
-0.48615630784375696	0.16937800581400822
-0.48609527268750696	0.14455554484936425
-0.48603423753125696	0.11910585458068419
-0.48597320237500696	0.09313116510854524
-0.48591216721875696	0.06673589172665059
-0.48585113206250696	0.04002624625209566
-0.48579009690625696	0.01310974501704649
-0.48572906175000696	-0.013905099751220657
-0.48566802659375696	-0.040909328820119016
-0.48560699143750696	-0.0677940451952138
-0.48554595628125696	-0.09445057184327904
-0.48548492112500696	-0.12077118221712416
-0.48542388596875696	-0.1466494918362659
-0.48536285081250696	-0.1719806656110621
-0.48530181565625696	-0.19666208222975126
-0.48524078050000696	-0.22059374895310818
-0.48517974534375696	-0.243678526239912
-0.48511871018750696	-0.2658225800133378
-0.48505767503125696	-0.28693599482745424
-0.48499663987500696	-0.3069328218508677
-0.48493560471875696	-0.3257314939911627
-0.48487456956250696	-0.34325544145405074
-0.48481353440625696	-0.35943301939505246
-0.48475249925000696	-0.3741979582278693
-0.48469146409375696	-0.3874898033131806
-0.48463042893750696	-0.3992538661493596
-0.48456939378125696	-0.40944160727089973
-0.48450835862500696	-0.41801090326749
-0.48444732346875696	-0.4249260468194707
-0.48438628831250696	-0.430158013955246
-0.48432525315625696	-0.4336845881226395
-0.48426421800000696	-0.4354903803065242
-0.48420318284375696	-0.43556695415901675
-0.48414214768750696	-0.4339128523979532
-0.48408111253125696	-0.43053359632888205
-0.48402007737500696	-0.4254416733806075
-0.48395904221875696	-0.418656492163579
-0.48389800706250696	-0.4102043015393063
-0.48383697190625696	-0.4001181036906274
-0.48377593675000696	-0.3884374999214686
-0.48371490159375696	-0.37520854863063313
-0.48365386643750696	-0.3604836023528831
-0.48359283128125696	-0.3443210415209179
-0.48353179612500696	-0.32678511431582136
-0.48347076096875696	-0.30794561833099665
-0.48340972581250696	-0.28787764440207203
-0.48334869065625696	-0.2666613147872862
-0.48328765550000696	-0.24438136733968407
-0.48322662034375696	-0.22112690766986004
-0.48316558518750696	-0.19699101589581441
-0.48310455003125696	-0.17207034219941406
-0.48304351487500696	-0.14646475840891846
-0.48298247971875696	-0.12027695728867079
-0.48292144456250696	-0.09361199504874733
-0.48286040940625696	-0.0665769040244373
-0.48279937425000696	-0.039280256136074054
-0.48273833909375696	-0.011831695488862365
-0.48267730393750696	0.01565844700652331
-0.48261626878125696	0.04307967816149165
-0.48255523362500696	0.07032174435867614
-0.48249419846875696	0.09727503316557501
-0.48243316331250696	0.12383112958464539
-0.48237212815625696	0.1498832078704111
-0.48231109300000696	0.17532636141834412
-0.48225005784375696	0.20005819776600095
-0.48218902268750696	0.2239791966154318
-0.48212798753125696	0.24699299849457768
-0.48206695237500696	0.2690069944295624
-0.48200591721875696	0.2899325697826495
-0.48194488206250696	0.30968545028878897
-0.48188384690625696	0.3281861825131717
-0.48182281175000696	0.3453603000525766
-0.48176177659375696	0.36113872275543113
-0.48170074143750696	0.37545803194522454
-0.48163970628125696	0.3882606832043788
-0.48157867112500696	0.399495286159402
-0.48151763596875696	0.40911678770062404
-0.48145660081250696	0.4170867174389397
-0.48139556565625696	0.4233732356380537
-0.48133453050000696	0.42795135539034224
-0.48127349534375696	0.43080305448528156
-0.48121246018750696	0.4319172579375931
-0.48115142503125696	0.4312899844854892
-0.48109038987500696	0.4289243200875091
-0.48102935471875696	0.4248303983960377
-0.48096831956250696	0.41902539299731784
-0.48090728440625696	0.4115334258888886
-0.48084624925000696	0.4023854764831519
-0.48078521409375696	0.3916192718807555
-0.48072417893750696	0.3792791176277648
-0.48066314378125696	0.365415714682382
-0.48060210862500696	0.35008599925087613
-0.48054107346875696	0.333352848077148
-0.48048003831250696	0.31528485895728364
-0.48041900315625696	0.2959561164088966
-0.48035796800000696	0.27544576887761874
-0.48029693284375696	0.25383784700061063
-0.48023589768750696	0.23122085793170338
-0.48017486253125696	0.2076873741422732
-0.48011382737500696	0.18333378315448984
-0.48005279221875696	0.15825977436666797
-0.47999175706250696	0.13256800878387826
-0.47993072190625696	0.10636366332494951
-0.47986968675000696	0.0797540005464719
-0.47980865159375696	0.05284801778018487
-0.47974761643750696	0.025755830631941288
-0.47968658128125696	-0.0014116388761151709
-0.47962554612500696	-0.02854307927128446
-0.47956451096875696	-0.05552742304434892
-0.47950347581250696	-0.08225416144093003
-0.47944244065625696	-0.10861378934932203
-0.47938140550000696	-0.13449831401144205
-0.47932037034375696	-0.15980170008068534
-0.47925933518750696	-0.18442027521686932
-0.47919830003125696	-0.20825310500091243
-0.47913726487500696	-0.23120251864301147
-0.47907622971875696	-0.253174442079528
-0.47901519456250696	-0.27407877054035457
-0.47895415940625696	-0.29382977393410736
-0.47889312425000696	-0.3123464347762903
-0.47883208909375696	-0.32955280052939195
-0.47877105393750696	-0.3453782381081404
-0.47871001878125696	-0.35975781046821614
-0.47864898362500696	-0.37263248427469337
-0.47858794846875696	-0.3839493612096579
-0.47852691331250696	-0.39366197895004307
-0.47846587815625696	-0.40173041317798314
-0.47840484300000696	-0.4081214768386124
-0.47834380784375696	-0.41280889634253265
-0.47828277268750696	-0.4157733638707883
-0.47822173753125696	-0.41700264112072466
-0.47816070237500696	-0.41649163524959165
-0.47809966721875696	-0.4142423888882394
-0.47803863206250696	-0.4102640893078584
-0.47797759690625696	-0.4045730391296623
-0.47791656175000696	-0.3971925848373197
-0.47785552659375696	-0.3881530266947741
-0.47779449143750696	-0.37749149184465874
-0.47773345628125696	-0.3652517936585237
-0.47767242112500696	-0.35148426878650413
-0.47761138596875696	-0.3362455149915074
-0.47755035081250696	-0.319598237280878
-0.47748931565625696	-0.301610976432983
-0.47742828050000696	-0.28235773723986857
-0.47736724534375696	-0.26191785157648806
-0.47730621018750696	-0.24037552957109187
-0.47724517503125696	-0.21781951452730128
-0.47718413987500696	-0.19434284856687206
-0.47712310471875696	-0.1700423274166356
-0.47706206956250696	-0.14501820450830805
-0.47700103440625696	-0.11937377210895557
-0.47693999925000696	-0.09321489885240852
-0.47687896409375696	-0.06664967212838138
-0.47681792893750696	-0.03978781923945516
-0.47675689378125696	-0.012740417315339325
-0.47669585862500696	0.01438063108639918
-0.47663482346875696	0.0414631644867684
-0.47657378831250696	0.06839500159391106
-0.47651275315625696	0.09506456161717469
-0.47645171800000696	0.12136133748786396
-0.47639068284375696	0.1471762422994969
-0.47632964768750696	0.17240210098400896
-0.47626861253125696	0.1969341582034753
-0.47620757737500696	0.220670441219604
-0.47614654221875696	0.24351213777232456
-0.47608550706250696	0.2653641597434533
-0.47602447190625696	0.28613537874867717
-0.47596343675000696	0.3057390450441462
-0.47590240159375696	0.3240932467721653
-0.47584136643750696	0.34112109036811994
-0.47578033128125696	0.35675112690040706
-0.47571929612500696	0.37091763934879907
-0.47565826096875696	0.38356086211467055
-0.47559722581250696	0.39462729541714275
-0.47553619065625696	0.4040698880808092
-0.47547515550000696	0.41184824625439226
-0.47541412034375696	0.4179288042862646
-0.47535308518750696	0.4222849698005561
-0.47529205003125696	0.42489724576803173
-0.47523101487500696	0.4257532773037657
-0.47516997971875696	0.4248479527008083
-0.47510894456250696	0.4221834231812973
-0.47504790940625696	0.4177690523402911
-0.47498687425000696	0.41162144134308776
-0.47492583909375696	0.4037643359772048
-0.47486480393750696	0.39422853018002757
-0.47480376878125696	0.3830517539857096
-0.47474273362500696	0.37027852170604925
-0.47468169846875696	0.3559599568352144
-0.47462066331250696	0.34015355905276434
-0.47455962815625696	0.3229230259943545
-0.47449859300000696	0.30433792413208216
-0.47443755784375696	0.2844734885249413
-0.47437652268750696	0.26341023288621807
-0.47431548753125696	0.24123366565470145
-0.47425445237500696	0.218033990040565
-0.47419341721875696	0.19390558821616333
-0.47413238206250696	0.16894683312141945
-0.47407134690625696	0.14325951009135354
-0.47401031175000696	0.11694848560834382
-0.47394927659375696	0.09012132980311248
-0.47388824143750696	0.06288770679243716
-0.47382720628125696	0.03535908052275898
-0.47376617112500696	0.007648271645255149
-0.47370513596875696	-0.020131187056448528
-0.47364410081250696	-0.047865382817591506
-0.47358306565625696	-0.07544036969588155
-0.47352203050000696	-0.10274298962749358
-0.47346099534375696	-0.1296610048596232
-0.47339996018750696	-0.15608364637535857
-0.47333892503125696	-0.18190225399979545
-0.47327788987500696	-0.2070104161391668
-0.47321685471875696	-0.23130469207316284
-0.47315581956250696	-0.25468487088219227
-0.47309478440625696	-0.27705441332936287
-0.47303374925000696	-0.2983209423613905
-0.47297271409375696	-0.3183964640140171
-0.47291167893750696	-0.3371979193155089
-0.47285064378125696	-0.35464738145358854
-0.47278960862500696	-0.37067241795734646
-0.47272857346875696	-0.38520647860938606
-0.47266753831250696	-0.39818902844623877
-0.47260650315625696	-0.40956590665123105
-0.47254546800000696	-0.4192895360604803
-0.47248443284375696	-0.427319075579205
-0.47242339768750696	-0.4336206566329879
-0.47236236253125696	-0.4381674762289769
-0.47230132737500696	-0.4409399244645218
-0.47224029221875696	-0.4419257043707667
-0.47217925706250696	-0.44111983432294194
-0.47211822190625696	-0.43852469229249463
-0.47205718675000696	-0.4341500378564223
-0.47199615159375696	-0.4280129372999654
-0.47193511643750696	-0.42013770068645095
-0.47187408128125696	-0.41055582926605316
-0.47181304612500696	-0.39930583307610895
-0.47175201096875696	-0.3864330934809906
-0.47169097581250696	-0.37198972343781944
-0.47162994065625696	-0.35603428785498564
-0.47156890550000696	-0.33863159105129226
-0.47150787034375696	-0.31985245119014616
-0.47144683518750696	-0.2997733728339608
-0.47138580003125696	-0.27847620015062974
-0.47132476487500696	-0.25604786921903017
-0.47126372971875696	-0.23258000671352555
-0.47120269456250696	-0.20816849893166187
-0.47114165940625696	-0.1829132158737485
-0.47108062425000696	-0.15691751583081756
-0.47101958909375696	-0.1302878011882852
-0.47095855393750696	-0.1031332037244777
-0.47089751878125696	-0.07556498737297844
-0.47083648362500696	-0.04769615283345277
-0.47077544846875696	-0.019641064106615046
-0.47071441331250696	0.008485239029092845
-0.47065337815625696	0.03656730459514774
-0.47059234300000696	0.06448981912949334
-0.47053130784375696	0.09213818042526685
-0.47047027268750696	0.119398771123328
-0.47040923753125696	0.14615963566893778
