Time	Frequency
-0.5000576976562456	0.1985158462464427
-0.49999666249999564	0.22483692434023594
-0.49993562734374564	0.2501816441468608
-0.49987459218749564	0.27443507406274553
-0.49981355703124564	0.2974868945953911
-0.49975252187499564	0.319232376996711
-0.49969148671874564	0.33957256840820205
-0.49963045156249564	0.35841475588732213
-0.49956941640624564	0.3756730610187384
-0.49950838124999564	0.3912686714065822
-0.49944734609374564	0.4051302385326223
-0.49938631093749564	0.41719423871797695
-0.49932527578124564	0.42740529172676667
-0.49926424062499564	0.4357163139995057
-0.49920320546874564	0.44208880732786926
-0.49914217031249564	0.4464930681035379
-0.49908113515624564	0.44890824734574897
-0.49902009999999564	0.4493225013257787
-0.49895906484374564	0.4477330341490623
-0.49889802968749564	0.44414613164708105
-0.49883699453124564	0.4385771091813156
-0.49877595937499564	0.43105025821123283
-0.49871492421874564	0.42159877324784767
-0.49865388906249564	0.4102645307970411
-0.49859285390624564	0.3970979859186483
-0.49853181874999564	0.3821579073569596
-0.49847078359374564	0.3655110814663449
-0.49840974843749564	0.3472320936647035
-0.49834871328124564	0.32740292620612366
-0.49828767812499564	0.3061126105021085
-0.49822664296874564	0.2834568098264957
-0.49816560781249564	0.25953747077946937
-0.49810457265624564	0.23446220856097383
-0.49804353749999564	0.20834393206770935
-0.49798250234374564	0.18130041007420453
-0.49792146718749564	0.15345343624869992
-0.49786043203124564	0.12492869836759297
-0.49779939687499564	0.09585485130827592
-0.49773836171874564	0.06636301890214442
-0.49767732656249564	0.03658651404644452
-0.49761629140624564	0.006659647349902429
-0.49755525624999564	-0.023282408983372797
-0.49749422109374564	-0.05310431208504522
-0.49743318593749564	-0.08267135356182595
-0.49737215078124564	-0.11184997008722286
-0.49731111562499564	-0.14050830427594646
-0.49725008046874564	-0.16851670994490336
-0.49718904531249564	-0.19574871096138266
-0.49712801015624564	-0.22208123879563402
-0.49706697499999564	-0.24739518816562672
-0.49700593984374564	-0.27157621843937235
-0.49694490468749564	-0.2945151043967339
-0.49688386953124564	-0.3161081476667986
-0.49682283437499564	-0.33625788008702223
-0.49676179921874564	-0.3548733807403086
-0.49670076406249564	-0.3718705653945914
-0.49663972890624564	-0.38717290248524594
-0.49657869374999564	-0.40071146232771054
-0.49651765859374564	-0.4124252984060352
-0.49645662343749564	-0.42226189065832404
-0.49639558828124564	-0.4301771896196843
-0.49633455312499564	-0.4361358921647665
-0.49627351796874564	-0.44011164725070406
-0.49621248281249564	-0.44208713588281584
-0.49615144765624564	-0.4420541357138019
-0.49609041249999564	-0.44001360777160736
-0.49602937734374564	-0.43597566511926206
-0.49596834218749564	-0.4299595348684959
-0.49590730703124564	-0.4219934782161679
-0.49584627187499564	-0.41211465358788507
-0.49578523671874564	-0.40036897300019963
-0.49572420156249564	-0.3868108412185079
-0.49566316640624564	-0.3715030034604324
-0.49560213124999564	-0.3545161622441146
-0.49554109609374564	-0.3359286750546826
-0.49548006093749564	-0.31582631041875364
-0.49541902578124564	-0.2943016852168893
-0.49535799062499564	-0.27145393858331984
-0.49529695546874564	-0.2473883066835979
-0.49523592031249564	-0.22221561075000748
-0.49517488515624564	-0.19605165910501693
-0.49511384999999564	-0.16901688120257213
-0.49505281484374564	-0.1412357562952905
-0.49499177968749564	-0.11283601048141152
-0.49493074453124564	-0.08394837824600118
-0.49486970937499564	-0.05470580172763228
-0.49480867421874564	-0.025242789595176833
-0.49474763906249564	0.004305052640169749
-0.49468660390624564	0.03380176491560692
-0.49462556874999564	0.06311153110890161
-0.49456453359374564	0.09209954831248654
-0.49450349843749564	0.12063233272956286
-0.49444246328124564	0.14857843019736688
-0.49438142812499564	0.17580930901880154
-0.49432039296874564	0.20219948464516743
-0.49425935781249564	0.22762735783711147
-0.49419832265624564	0.2519758368563795
-0.49413728749999564	0.27513269808613183
-0.49407625234374564	0.296991199408726
-0.49401521718749564	0.31745053106082904
-0.49395418203124564	0.33641635934182784
-0.49389314687499564	0.35380118866526616
-0.49383211171874564	0.3695247094523504
-0.49377107656249564	0.38351437983563974
-0.49371004140624564	0.39570553122426294
-0.49364900624999564	0.4060417559068673
-0.49358797109374564	0.4144752787192134
-0.49352693593749564	0.42096695142621937
-0.49346590078124564	0.42548666041478966
-0.49340486562499564	0.4280133473514296
-0.49334383046874564	0.42853509470302303
-0.49328279531249564	0.4270492851887537
-0.49322176015624564	0.42356253013651934
-0.49316072499999564	0.41809066168218156
-0.49309968984374564	0.4106586899094695
-0.49303865468749564	0.40130068146564013
-0.49297761953124564	0.39005956830457095
-0.49291658437499564	0.3769870302908438
-0.49285554921874564	0.3621431838605097
-0.49279451406249564	0.3455963633192966
-0.49273347890624564	0.32742278980858325
-0.49267244374999564	0.30770619667762195
-0.49261140859374564	0.2865375358104509
-0.49255037343749564	0.2640144430316605
-0.49248933828124564	0.2402408678050101
-0.49242830312499564	0.21532661693124958
-0.49236726796874564	0.18938677700374268
-0.49230623281249564	0.16254122855998393
-0.49224519765624564	0.13491413695959772
-0.49218416249999564	0.1066332765369486
-0.49212312734374564	0.07782956259742452
-0.49206209218749564	0.04863639154141578
-0.49200105703124564	0.019188947487020908
-0.49194002187499564	-0.010376169253514962
-0.49187898671874564	-0.0399218845674234
-0.49181795156249564	-0.06931113003333493
-0.49175691640624564	-0.09840732572330059
-0.49169588124999564	-0.12707534874260917
-0.49163484609374564	-0.1551818983130361
-0.49157381093749564	-0.18259609588917675
-0.49151277578124564	-0.20919034273690967
-0.49145174062499564	-0.23484062403921824
-0.49139070546874564	-0.2594272094232926
-0.49132967031249564	-0.2828353071136918
-0.49126863515624564	-0.30495534567757054
-0.49120759999999564	-0.3256837281877372
-0.49114656484374564	-0.34492317303253656
-0.49108552968749564	-0.3625832130702349
-0.49102449453124564	-0.3785806252304916
-0.49096345937499564	-0.3928397559917646
-0.49090242421874564	-0.4052929899972575
-0.49084138906249564	-0.4158809303828847
-0.49078035390624564	-0.4245528131366228
-0.49071931874999564	-0.4312666279478761
-0.49065828359374564	-0.43598937956455164
-0.49059724843749564	-0.4386972792323034
-0.49053621328124564	-0.4393757540528504
-0.49047517812499564	-0.43801962985585885
-0.49041414296874564	-0.4346330943954402
-0.49035310781249564	-0.42922971267670146
-0.49029207265624564	-0.421832359871692
-0.49023103749999564	-0.41247312558787036
-0.49017000234374564	-0.4011931766852324
-0.49010896718749564	-0.38804254815960976
-0.49004793203124564	-0.3730799844684296
-0.48998689687499564	-0.35637256903745135
-0.48992586171874564	-0.3379955179252911
-0.48986482656249564	-0.3180318283167464
-0.48980379140624564	-0.2965717664095305
-0.48974275624999564	-0.27371271704026723
-0.48968172109374564	-0.24955846163001874
-0.48962068593749564	-0.224218843607814
-0.48955965078124564	-0.19780937565911297
-0.48949861562499564	-0.1704503763029212
-0.48943758046874564	-0.14226681821607579
-0.48937654531249564	-0.11338746273443924
-0.48931551015624564	-0.08394438767739863
-0.48925447499999564	-0.054072415272388624
-0.48919343984374564	-0.023908312684857828
-0.48913240468749564	0.006409507676790305
-0.48907136953124564	0.03674201785775197
-0.48901033437499564	0.06694995538524603
-0.48894929921874564	0.09689444670294894
-0.48888826406249564	0.12643788455717253
-0.48882722890624564	0.15544431340041426
-0.48876619374999564	0.183780162665205
-0.48870515859374564	0.21131492056674153
-0.48864412343749564	0.2379216013129178
-0.48858308828124564	0.26347740863289626
-0.48852205312499564	0.2878644025054535
-0.48846101796874564	0.3109698434175832
-0.48839998281249564	0.33268679812304175
-0.48833894765624564	0.3529147766690946
-0.48827791249999564	0.37156000949034984
-0.48821687734374564	0.388535878700412
-0.48815584218749564	0.40376353212116745
-0.48809480703124564	0.4171720702810077
-0.48803377187499564	0.42869884479127124
-0.48797273671874564	0.4382899345009527
-0.48791170156249564	0.4459002570135886
-0.48785066640624564	0.45149379370239745
-0.48778963124999564	0.45504382599531734
-0.48772859609374564	0.45653300507565125
-0.48766756093749564	0.45595345941874654
-0.48760652578124564	0.45330683902626956
-0.48754549062499564	0.4486042959022363
-0.48748445546874564	0.44186646472001245
-0.48742342031249564	0.43312333771820744
-0.48736238515624564	0.4224141764564308
-0.48730134999999564	0.40978727983460617
-0.48724031484374564	0.3952998094843702
-0.48717927968749564	0.37901753475494715
-0.48711824453124564	0.361014464577177
-0.48705720937499564	0.341372617527032
-0.48699617421874564	0.3201815407405242
-0.48693513906249564	0.2975379907659597
-0.48687410390624564	0.2735454085354915
-0.48681306874999564	0.2483135049625181
-0.48675203359374564	0.2219577548992254
-0.48669099843749564	0.19459878044672374
-0.48662996328124564	0.16636196074661558
-0.48656892812499564	0.13737666603929566
-0.48650789296874564	0.10777579769966773
-0.48644685781249564	0.07769514564800023
-0.48638582265624564	0.04727269881956785
-0.48632478749999564	0.01664809686706519
-0.48626375234374564	-0.014038076184702378
-0.48620271718749564	-0.04464490648424978
-0.48614168203124564	-0.07503183285046269
-0.48608064687499564	-0.10505927340564086
-0.48601961171874564	-0.13458924110333795
-0.48595857656249564	-0.16348610716877546
-0.48589754140624564	-0.19161707506838874
-0.48583650624999564	-0.21885281867890796
-0.48577547109374564	-0.24506827197750586
-0.48571443593749564	-0.270142923565242
-0.48565340078124564	-0.29396157045116617
-0.48559236562499564	-0.3164148217081336
-0.48553133046874564	-0.33739952943273904
-0.48547029531249564	-0.3568193939229405
-0.48540926015624564	-0.3745852570890338
-0.48534822499999564	-0.39061568013666237
-0.48528718984374564	-0.40483720689774144
-0.48522615468749564	-0.4171847412142251
-0.48516511953124564	-0.4276018845710059
-0.48510408437499564	-0.43604112751378354
-0.48504304921874564	-0.4424641788022673
-0.48498201406249564	-0.44684202436321124
-0.48492097890624564	-0.4491551484268413
-0.48485994374999564	-0.4493936257071117
-0.48479890859374564	-0.4475570995598568
-0.48473787343749564	-0.4436548761920521
-0.48467683828124564	-0.43770582753240017
-0.48461580312499564	-0.4297383143778152
-0.48455476796874564	-0.41979008628235914
-0.48449373281249564	-0.40790805954637593
-0.48443269765624564	-0.3941481587417503
-0.48437166249999564	-0.3785750249124888
-0.48431062734374564	-0.36126169149913223
-0.48424959218749564	-0.342289338553614
-0.48418855703124564	-0.32174682455565734
-0.48412752187499564	-0.29973029028104775
-0.48406648671874564	-0.2763427927380467
-0.48400545156249564	-0.25169372911379406
-0.48394441640624564	-0.22589836786474898
-0.48388338124999564	-0.1990773397290509
-0.48382234609374564	-0.17135603456444712
-0.48376131093749564	-0.14286407518529318
-0.48370027578124564	-0.11373463774254686
-0.48363924062499564	-0.08410387257382182
-0.48357820546874564	-0.05411036774811847
-0.48351717031249564	-0.02389427220527129
-0.48345613515624564	0.00640314403313474
-0.48339509999999564	0.03664016202999101
-0.48333406484374564	0.06667547157396345
-0.48327302968749564	0.09636858698508677
-0.48321199453124564	0.1255806053305149
-0.48315095937499564	0.15417491810307996
-0.48308992421874564	0.18201777469150435
-0.48302888906249564	0.20897883212109417
-0.48296785390624564	0.2349319465957861
-0.48290681874999564	0.25975566711730796
-0.48284578359374564	0.283333692067819
-0.48278474843749564	0.305555670070914
-0.48272371328124564	0.3263174910338937
-0.48266267812499564	0.3455218245933305
-0.48260164296874564	0.3630787008117318
-0.48254060781249564	0.37890576766968836
-0.48247957265624564	0.3929287707023302
-0.48241853749999564	0.405081890403269
-0.48235750234374564	0.41530802482979584
-0.48229646718749564	0.42355910687342313
-0.48223543203124564	0.4297962836377593
-0.48217439687499564	0.4339901174568518
-0.48211336171874564	0.43612076237044645
-0.48205232656249564	0.4361780111017005
-0.48199129140624564	0.43416135521468524
-0.48193025624999564	0.4300800331102207
-0.48186922109374564	0.42395294004082756
-0.48180818593749564	0.41580857139178123
-0.48174715078124564	0.4056848897454301
-0.48168611562499564	0.39362914222414064
-0.48162508046874564	0.37969766101691454
-0.48156404531249564	0.36395558344332013
-0.48150301015624564	0.3464765790140832
-0.48144197499999564	0.327342458214974
-0.48138093984374564	0.3066428612707295
-0.48131990468749564	0.2844748190940112
-0.48125886953124564	0.2609422155401714
-0.48119783437499564	0.23615548128895675
-0.48113679921874564	0.21023090680369158
-0.48107576406249564	0.18329022050445176
-0.48101472890624564	0.15545996430768483
-0.48095369374999564	0.12687081782182813
-0.48089265859374564	0.09765733208639094
-0.48083162343749564	0.0679567820874159
-0.48077058828124564	0.037908888470566775
-0.48070955312499564	0.007655262213310311
-0.48064851796874564	-0.02266177234466835
-0.48058748281249564	-0.0528992946389474
-0.48052644765624564	-0.08291466364221757
-0.48046541249999564	-0.11256636008234253
-0.48040437734374564	-0.14171436398683063
-0.48034334218749564	-0.17022095834189474
-0.48028230703124564	-0.19795137157513884
-0.48022127187499564	-0.22477440366746876
-0.48016023671874564	-0.2505630414665209
-0.48009920156249564	-0.27519494544105116
-0.48003816640624564	-0.29855328345364485
-0.47997713124999564	-0.32052707404119357
-0.47991609609374564	-0.3410116062855006
-0.47985506093749564	-0.3599093571852914
-0.47979402578124564	-0.3771300231607627
-0.47973299062499564	-0.3925910450009368
-0.47967195546874564	-0.40621826556047197
-0.47961092031249564	-0.4179459304435901
-0.47954988515624564	-0.4277171680622024
-0.47948884999999564	-0.4354843071002208
-0.47942781484374564	-0.44120898688692656
-0.47936677968749564	-0.4448624234786909
-0.47930574453124564	-0.4464255345918061
-0.47924470937499564	-0.4458890086501795
-0.47918367421874564	-0.44325338737644576
-0.47912263906249564	-0.43852906138875436
-0.47906160390624564	-0.4317362065244085
-0.47900056874999564	-0.422904723809962
-0.47893953359374564	-0.41207409569193704
-0.47887849843749564	-0.3992931943309913
-0.47881746328124564	-0.3846200863006512
-0.47875642812499564	-0.36812172866866893
-0.47869539296874564	-0.34987370019044295
-0.47863435781249564	-0.32995983903029724
-0.47857332265624564	-0.30847182110166543
-0.47851228749999564	-0.2855088040300053
-0.47845125234374564	-0.2611768997170114
-0.47839021718749564	-0.23558871005191373
-0.47832918203124564	-0.20886284560838217
-0.47826814687499564	-0.18112329159848545
-0.47820711171874564	-0.15249884883381024
-0.47814607656249564	-0.12312262751837953
-0.47808504140624564	-0.09313131679829478
-0.47802400624999564	-0.06266452765117055
-0.47796297109374564	-0.03186431459154707
-0.47790193593749564	-0.0008742707486893155
-0.47784090078124564	0.03016092026487471
-0.47777986562499564	0.06109630403782407
-0.47771883046874564	0.09178741963239193
-0.47765779531249564	0.12209051059927353
-0.47759676015624564	0.1518639199522014
-0.47753572499999564	0.1809682532581798
-0.47747468984374564	0.20926692393762883
-0.47741365468749564	0.2366274213567845
-0.47735261953124564	0.2629212400808105
-0.47729158437499564	0.2880248678441315
-0.47723054921874564	0.31182039246676946
-0.47716951406249564	0.33419576060912176
-0.47710847890624564	0.3550456485687648
-0.47704744374999564	0.3742717775245427
-0.47698640859374564	0.3917833280122404
-0.47692537343749564	0.40749754601445515
-0.47686433828124564	0.42134002077785854
-0.47680330312499564	0.43324499682783635
-0.47674226796874564	0.4431558463265856
-0.47668123281249564	0.45102516631704276
-0.47662019765624564	0.4568151023812527
-0.47655916249999564	0.46049756307859335
-0.47649812734374564	0.46205421346672104
-0.47643709218749564	0.46147673633948516
-0.47637605703124564	0.45876677776704305
-0.47631502187499564	0.45393594756766
-0.47625398671874564	0.44700581892636787
-0.47619295156249564	0.4380077762049066
-0.47613191640624564	0.42698293220596123
-0.47607088124999564	0.413981877873314
-0.47600984609374564	0.3990644805845427
-0.47594881093749564	0.38229966063645127
-0.47588777578124564	0.3637649259670063
-0.47582674062499564	0.3435461938907407
-0.47576570546874564	0.32173727514402256
-0.47570467031249564	0.29843940909395067
-0.47564363515624564	0.2737609882444749
-0.47558259999999564	0.2478167297667435
-0.47552156484374564	0.22072747687526265
-0.47546052968749564	0.19261946368763586
-0.47539949453124564	0.16362358042817743
-0.47533845937499564	0.13387517010575192
-0.47527742421874564	0.10351299353781156
-0.47521638906249564	0.07267870905881088
-0.47515535390624564	0.04151634155582042
-0.47509431874999564	0.010171430558859655
-0.47503328359374564	-0.021209577669678917
-0.47497224843749564	-0.05248003474176497
-0.47491121328124564	-0.08349376972135111
-0.47485017812499564	-0.11410572718124048
-0.47478914296874564	-0.1441727808697702
-0.47472810781249564	-0.1735543220057681
-0.47466707265624564	-0.20211280690244202
-0.47460603749999564	-0.22971472449665398
-0.47454500234374564	-0.25623088806584265
-0.47448396718749564	-0.28153712823852406
-0.47442293203124564	-0.30551519087509205
-0.47436189687499564	-0.3280527794903091
-0.47430086171874564	-0.3490443999663234
-0.47423982656249564	-0.3683919856471226
-0.47417879140624564	-0.38600497798566685
-0.47411775624999564	-0.40180100520338236
-0.47405672109374564	-0.41570632431431404
-0.47399568593749564	-0.42765602186739093
-0.47393465078124564	-0.43759432182376207
-0.47387361562499564	-0.4454749872123358
-0.47381258046874564	-0.4512614744936384
-0.47375154531249564	-0.4549270099870535
-0.47369051015624564	-0.4564548865709985
-0.47362947499999564	-0.45583845487156505
-0.47356843984374564	-0.4530811334173572
-0.47350740468749564	-0.44819648940750023
-0.47344636953124564	-0.4412080685124373
-0.47338533437499564	-0.4321493782802084
-0.47332429921874564	-0.42106370865349635
-0.47326326406249564	-0.4080038383441681
-0.47320222890624564	-0.39303199727078036
-0.47314119374999564	-0.3762193520315633
-0.47308015859374564	-0.3576457610215452
-0.47301912343749564	-0.3373995261436853
-0.47295808828124564	-0.3155767146874947
-0.47289705312499564	-0.2922809429718541
-0.47283601796874564	-0.2676227984777571
-0.47277498281249564	-0.2417192877844395
-0.47271394765624564	-0.21469334514654267
-0.47265291249999564	-0.18667318851025963
-0.47259187734374564	-0.15779185924570768
-0.47253084218749564	-0.12818636135080627
-0.47246980703124564	-0.09799717696446483
-0.47240877187499564	-0.06736770208655193
-0.47234773671874564	-0.03644321341094936
-0.47228670156249564	-0.005370553504118429
-0.47222566640624564	0.02570266152631253
-0.47216463124999564	0.05662902160942119
-0.47210359609374564	0.08726156410295807
-0.47204256093749564	0.11745472086542916
-0.47198152578124564	0.14706516661046007
-0.47192049062499564	0.17595211977631953
-0.47185945546874564	0.20397826359180318
-0.47179842031249564	0.23101041405992928
-0.47173738515624564	0.25691995448855837
-0.47167634999999564	0.2815837079012272
-0.47161531484374564	0.3048842908124792
-0.47155427968749564	0.32671076026618445
-0.47149324453124564	0.3469592898546643
-0.47143220937499564	0.3655333441083552
-0.47137117421874564	0.38234442653815204
-0.47131013906249564	0.39731242996606025
-0.47124910390624564	0.4103658674436835
-0.47118806874999564	0.4214424431620778
-0.47112703359374564	0.43048923151910035
-0.47106599843749564	0.4374628795533185
-0.47100496328124564	0.44232995774937883
-0.47094392812499564	0.4450670330627446
-0.47088289296874564	0.4456607520489511
-0.47082185781249564	0.4441080176562019
-0.47076082265624564	0.4404159257169073
-0.47069978749999564	0.4346017419955228
-0.47063875234374564	0.42669286916878246
-0.47057771718749564	0.4167266719381639
-0.47051668203124564	0.4047503319058302
-0.47045564687499564	0.3908206364290585
