Time	Frequency
-0.500045601062503	0.06615401041371562
-0.49998456590625295	0.04711212496998252
-0.49992353075000295	0.027924269462019705
-0.49986249559375295	0.008644030829465821
-0.49980146043750295	-0.010674754378032315
-0.49974042528125295	-0.02997806071725712
-0.49967939012500295	-0.049211943021102086
-0.49961835496875295	-0.0683225599733918
-0.49955731981250295	-0.0872564306422937
-0.49949628465625295	-0.10596057169702472
-0.49943524950000295	-0.1243825180640471
-0.49937421434375295	-0.14247072294816654
-0.49931317918750295	-0.16017442895944062
-0.49925214403125295	-0.17744398182281462
-0.49919110887500295	-0.1942309852941466
-0.49913007371875295	-0.2104882530636304
-0.49906903856250295	-0.2261701974705038
-0.49900800340625295	-0.24123276213088757
-0.49894696825000295	-0.25563361596549683
-0.49888593309375295	-0.2693323125125064
-0.49882489793750295	-0.28229032057042996
-0.49876386278125295	-0.29447121375724905
-0.49870282762500295	-0.3058407179883859
-0.49864179246875295	-0.31636684055220154
-0.49858075731250295	-0.3260199560228517
-0.49851972215625295	-0.3347728761779466
-0.49845868700000295	-0.34260093904386
-0.49839765184375295	-0.34948208981899764
-0.49833661668750295	-0.35539693466549116
-0.49827558153125295	-0.36032876901182864
-0.49821454637500295	-0.3642636900304602
-0.49815351121875295	-0.36719057464591454
-0.49809247606250295	-0.36910113772895325
-0.49803144090625295	-0.36998997948771134
-0.49797040575000295	-0.36985454524076444
-0.49790937059375295	-0.36869519274407064
-0.49784833543750295	-0.36651515869313
-0.49778730028125295	-0.36332055321766926
-0.49772626512500295	-0.3591203602492903
-0.49766522996875295	-0.35392639430797534
-0.49760419481250295	-0.347753282848126
-0.49754315965625295	-0.3406184112091958
-0.49748212450000295	-0.3325418946642092
-0.49742108934375295	-0.3235464997381749
-0.49736005418750295	-0.31365759784305053
-0.49729901903125295	-0.3029030981569219
-0.49723798387500295	-0.2913133293193294
-0.49717694871875295	-0.2789210321978128
-0.49711591356250295	-0.265761176410739
-0.49705487840625295	-0.2518709291065935
-0.49699384325000295	-0.23728953846126005
-0.49693280809375295	-0.2220581770885421
-0.49687177293750295	-0.20621991860166403
-0.49681073778125295	-0.18981949715498325
-0.49674970262500295	-0.17290329447321928
-0.49668866746875295	-0.1555191275067758
-0.49662763231250295	-0.13771615869636847
-0.49656659715625295	-0.11954476018224082
-0.49650556200000295	-0.10105629758430132
-0.49644452684375295	-0.0823031149506729
-0.49638349168750295	-0.06333825377641378
-0.49632245653125295	-0.044215406163738
-0.49626142137500295	-0.024988678886178506
-0.49620038621875295	-0.005712505366424009
-0.49613935106250295	0.01355851750352137
-0.49607831590625295	0.03276987153265698
-0.49601728075000295	0.05186709651406977
-0.49595624559375295	0.0707961403982536
-0.49589521043750295	0.08950339854064354
-0.49583417528125295	0.10793583350201989
-0.49577314012500295	0.12604127238054494
-0.49571210496875295	0.14376840677994387
-0.49565106981250295	0.1610669857469369
-0.49559003465625295	0.1778880431923981
-0.49552899950000295	0.1941838876156868
-0.49546796434375295	0.2099083338949335
-0.49540692918750295	0.2250168628360954
-0.49534589403125295	0.23946664498835601
-0.49528485887500295	0.2532167427871782
-0.49522382371875295	0.2662282078492593
-0.49516278856250295	0.2784641994144522
-0.49510175340625295	0.28989004367164206
-0.49504071825000295	0.3004734099341019
-0.49497968309375295	0.3101843526727432
-0.49491864793750295	0.31899538065693944
-0.49485761278125295	0.3268816128228184
-0.49479657762500295	0.3338207535721728
-0.49473554246875295	0.3397932426725674
-0.49467450731250295	0.34478224517643186
-0.49461347215625295	0.348773741702607
-0.49455243700000295	0.351756569618607
-0.49449140184375295	0.35372240899278995
-0.49443036668750295	0.35466588504899743
-0.49436933153125295	0.35458450538523395
-0.49430829637500295	0.3534787208401175
-0.49424726121875295	0.3513519102867329
-0.49418622606250295	0.3482103586658077
-0.49412519090625295	0.34406326409738996
-0.49406415575000295	0.33892269395935726
-0.49400312059375295	0.3328035581717275
-0.49394208543750295	0.3257235715114207
-0.49388105028125295	0.31770319669130237
-0.49382001512500295	0.30876558840616636
-0.49375897996875295	0.2989365478196466
-0.49369794481250295	0.2882443985812241
-0.49363690965625295	0.27671997981089946
-0.49357587450000295	0.26439649946874627
-0.49351483934375295	0.25130944831252394
-0.49345380418750295	0.23749655711471995
-0.49339276903125295	0.22299759402048433
-0.49333173387500295	0.20785433302855985
-0.49327069871875295	0.192110402212232
-0.49320966356250295	0.1758111580447
-0.49314862840625295	0.1590035538755195
-0.49308759325000295	0.14173603599055526
-0.49302655809375295	0.1240583704528282
-0.49296552293750295	0.10602148869523635
-0.49290448778125295	0.08767744175173717
-0.49284345262500295	0.06907908595187627
-0.49278241746875295	0.05028008646239969
-0.49272138231250295	0.031334711698716496
-0.49266034715625295	0.01229758692522563
-0.49259931200000295	-0.006776269888802829
-0.49253827684375295	-0.02583179659752363
-0.49247724168750295	-0.0448139359159463
-0.49241620653125295	-0.06366780840754545
-0.49235517137500295	-0.08233891741270119
-0.49229413621875295	-0.10077320517292655
-0.49223310106250295	-0.11891736029218725
-0.49217206590625295	-0.13671880559083785
-0.49211103075000295	-0.15412594557181766
-0.49204999559375295	-0.1710883496312113
-0.49198896043750295	-0.1875567559949732
-0.49192792528125295	-0.2034833505449776
-0.49186689012500295	-0.21882186864734732
-0.49180585496875295	-0.23352767133843597
-0.49174481981250295	-0.24755792529711151
-0.49168378465625295	-0.26087177253458665
-0.49162274950000295	-0.2734303052132342
-0.49156171434375295	-0.2851968230855854
-0.49150067918750295	-0.2961369098621931
-0.49143964403125295	-0.3062184042033078
-0.49137860887500295	-0.315411722249202
-0.49131757371875295	-0.32368973100780696
-0.49125653856250295	-0.33102792539272646
-0.49119550340625295	-0.3374045398578864
-0.49113446825000295	-0.3428004861254011
-0.49107343309375295	-0.34719955077674675
-0.49101239793750295	-0.35058832909877086
-0.49095136278125295	-0.35295633921271896
-0.49089032762500295	-0.3542960270210261
-0.49082929246875295	-0.3546027641589169
-0.49076825731250295	-0.3538749282250595
-0.49070722215625295	-0.3521138365521165
-0.49064618700000295	-0.34932379061166347
-0.49058515184375295	-0.34551205686820974
-0.49052411668750295	-0.34068883302509434
-0.49046308153125295	-0.3348672306687216
-0.49040204637500295	-0.32806325382744805
-0.49034101121875295	-0.3202957192775648
-0.49027997606250295	-0.31158623192672286
-0.49021894090625295	-0.30195914191937195
-0.49015790575000295	-0.29144139647207695
-0.49009687059375295	-0.280062580446614
-0.49003583543750295	-0.2678547460089469
-0.48997480028125295	-0.25485231784595735
-0.48991376512500295	-0.24109209062960227
-0.48985272996875295	-0.2266130173788306
-0.48979169481250295	-0.2114561346823188
-0.48973065965625295	-0.19566448585584334
-0.48966962450000295	-0.17928296319334153
-0.48960858934375295	-0.1623581264973693
-0.48954755418750295	-0.14493822383400554
-0.48948651903125295	-0.12707289036204744
-0.48942548387500295	-0.10881305335219113
-0.48936444871875295	-0.09021091277420143
-0.48930341356250295	-0.07131955892457194
-0.48924237840625295	-0.052193034614041824
-0.48918134325000295	-0.032886080658277986
-0.48912030809375295	-0.01345394489731033
-0.48905927293750295	0.00604764128740376
-0.48899823778125295	0.025562803652983475
-0.48893720262500295	0.04503553055023577
-0.48887616746875295	0.06440988043247467
-0.48881513231250295	0.08363024575502154
-0.48875409715625295	0.10264129959382995
-0.48869306200000295	0.12138837610651551
-0.48863202684375295	0.13981749552448172
-0.48857099168750295	0.1578755221672051
-0.48850995653125295	0.17551043024484322
-0.48844892137500295	0.1926712663467104
-0.48838788621875295	0.20930849979004187
-0.48832685106250295	0.2253740236666121
-0.48826581590625295	0.24082132614426696
-0.48820478075000295	0.25560567457099126
-0.48814374559375295	0.26968418470019007
-0.48808271043750295	0.2830159753773909
-0.48802167528125295	0.2955622756703237
-0.48796064012500295	0.307286563414049
-0.48789960496875295	0.3181546087291135
-0.48783856981250295	0.3281346578557388
-0.48777753465625295	0.33719747248868737
-0.48771649950000295	0.3453164073522535
-0.48765546434375295	0.35246752756660965
-0.48759442918750295	0.35862965118939405
-0.48753339403125295	0.3637844245568609
-0.48747235887500295	0.3679163571489513
-0.48741132371875295	0.37101290324997155
-0.48735028856250295	0.37306446675233756
-0.48728925340625295	0.3740644326741478
-0.48722821825000295	0.3740092221711715
-0.48716718309375295	0.372898259594012
-0.48710614793750295	0.3707339998297924
-0.48704511278125295	0.3675219297036248
-0.48698407762500295	0.36327053164434897
-0.48692304246875295	0.35799127928345265
-0.48686200731250295	0.35169859760990085
-0.48680097215625295	0.3444098306955162
-0.48673993700000295	0.3361451782658592
-0.48667890184375295	0.3269276563190429
-0.48661786668750295	0.3167830372649447
-0.48655683153125295	0.30573972971170926
-0.48649579637500295	0.2938287757313688
-0.48643476121875295	0.2810837011505897
-0.48637372606250295	0.2675404291824804
-0.48631269090625295	0.2532372220956697
-0.48625165575000295	0.2382145066330548
-0.48619062059375295	0.2225148208156095
-0.48612958543750295	0.2061826395562028
-0.48606855028125295	0.18926428963574124
-0.48600751512500295	0.17180780806634763
-0.48594647996875295	0.15386274959001453
-0.48588544481250295	0.13548017260061382
-0.48582440965625295	0.11671233911729305
-0.48576337450000295	0.09761266087741455
-0.48570233934375295	0.07823557086376888
-0.48564130418750295	0.05863622661763599
-0.48558026903125295	0.038870542055214063
-0.48551923387500295	0.01899486837010391
-0.48545819871875295	-0.0009340936181938468
-0.48539716356250295	-0.02085943719746124
-0.48533612840625295	-0.04072429866254715
-0.48527509325000295	-0.060471924306059
-0.48521405809375295	-0.08004588896952741
-0.48515302293750295	-0.09939025937534733
-0.48509198778125295	-0.11844973395041775
-0.48503095262500295	-0.13716979903334195
-0.48496991746875295	-0.15549693976369766
-0.48490888231250295	-0.17337869387402982
-0.48484784715625295	-0.19076390631890275
-0.48478681200000295	-0.2076028474871782
-0.48472577684375295	-0.22384727551809422
-0.48466474168750295	-0.23945073235682418
-0.48460370653125295	-0.25436853177438845
-0.48454267137500295	-0.2685579490037914
-0.48448163621875295	-0.2819783965621589
-0.48442060106250295	-0.2945914165719109
-0.48435956590625295	-0.30636091812634664
-0.48429853075000295	-0.31725321753230334
-0.48423749559375295	-0.32723713419853134
-0.48417646043750295	-0.3362841201457401
-0.48411542528125295	-0.34436829385444456
-0.48405439012500295	-0.35146656812831745
-0.48399335496875295	-0.35755867282327414
-0.48393231981250295	-0.3626272399305624
-0.48387128465625295	-0.366657853463907
-0.48381024950000295	-0.36963907990265293
-0.48374921434375295	-0.37156251075048036
-0.48368817918750295	-0.3724227962269148
-0.48362714403125295	-0.37221764379549077
-0.48356610887500295	-0.37094783288260025
-0.48350507371875295	-0.36861723100846905
-0.48344403856250295	-0.3652327555042343
-0.48338300340625295	-0.3608043658452394
-0.48332196825000295	-0.35534505801846433
-0.48326093309375295	-0.34887078715372477
-0.48319989793750295	-0.34140044691782745
-0.48313886278125295	-0.33295584088149155
-0.48307782762500295	-0.3235615408891357
-0.48301679246875295	-0.31324492110659813
-0.48295575731250295	-0.30203599854292335
-0.48289472215625295	-0.28996737751235685
-0.48283368700000295	-0.27707417049376515
-0.48277265184375295	-0.263393860778066
-0.48271161668750295	-0.24896623843566007
-0.48265058153125295	-0.23383323858523786
-0.48258954637500295	-0.21803888014520192
-0.48252851121875295	-0.20162905473408282
-0.48246747606250295	-0.18465150446730436
-0.48240644090625295	-0.1671555743132456
-0.48234540575000295	-0.14919212280670005
-0.48228437059375295	-0.13081343608279142
-0.48222333543750295	-0.11207291312592757
-0.48216230028125295	-0.09302508033798888
-0.48210126512500295	-0.07372535140954735
-0.48204022996875295	-0.05422986254007081
-0.48197919481250295	-0.03459534100529695
-0.48191815965625295	-0.014878922910139432
-0.48185712450000295	0.004862004896804067
-0.48179608934375295	0.024569987178400383
-0.48173505418750295	0.044187643197552515
-0.48167401903125295	0.06365784512406349
-0.48161298387500295	0.08292388122887628
-0.48155194871875295	0.10192966209035308
-0.48149091356250295	0.1206197735146116
-0.48142987840625295	0.13893975647529042
-0.48136884325000295	0.15683625427449785
-0.48130780809375295	0.1742570314314812
-0.48124677293750295	0.19115131646610953
-0.48118573778125295	0.2074698424834246
-0.48112470262500295	0.2231649688251035
-0.48106366746875295	0.2381909067926446
-0.48100263231250295	0.2525037991669462
-0.48094159715625295	0.2660618222675651
-0.48088056200000295	0.2788253859442518
-0.48081952684375295	0.2907572062316501
-0.48075849168750295	0.30182236381486877
-0.48069745653125295	0.3119885216773954
-0.48063642137500295	0.3212259290183794
-0.48057538621875295	0.3295075242839177
-0.48051435106250295	0.33680905072763306
-0.48045331590625295	0.34310909475670237
-0.48039228075000295	0.34838916144796694
-0.48033124559375295	0.35263373006496246
-0.48027021043750295	0.35583029645546643
-0.48020917528125295	0.35796940952028705
-0.48014814012500295	0.359044716961481
-0.48008710496875295	0.3590529559749073
-0.48002606981250295	0.35799398969058854
-0.47996503465625295	0.35587080018812356
-0.47990399950000295	0.3526894719881828
-0.47984296434375295	0.34845919450359575
-0.47978192918750295	0.3431922184113236
-0.47972089403125295	0.3369038327804098
-0.47965985887500295	0.3296123217773958
-0.47959882371875295	0.32133889780697394
-0.47953778856250295	0.312107664606883
-0.47947675340625295	0.3019455367272335
-0.47941571825000295	0.29088214417648994
-0.47935468309375295	0.2789497931578391
-0.47929364793750295	0.2661833166213946
-0.47923261278125295	0.2526200139244866
-0.47917157762500295	0.23829954828983793
-0.47911054246875295	0.22326377237905493
-0.47904950731250295	0.20755670369799323
-0.47898847215625295	0.1912242993126918
-0.47892743700000295	0.17431437576955963
-0.47886640184375295	0.1568764984244964
-0.47880536668750295	0.1389617380025181
-0.47874433153125295	0.1206226287903026
-0.47868329637500295	0.10191297091466711
-0.47862226121875295	0.08288765380866686
-0.47856122606250295	0.06360251886024765
-0.47850019090625295	0.04411422817445003
-0.47843915575000295	0.024480011950569
-0.47837812059375295	0.004757592757132366
-0.47831708543750295	-0.014994987089304149
-0.47825605028125295	-0.034719682073865304
-0.47819501512500295	-0.05435835182041255
-0.47813397996875295	-0.07385318495549485
-0.47807294481250295	-0.09314674896366801
-0.47801190965625295	-0.1121820861936882
-0.47795087450000295	-0.13090309656969618
-0.47788983934375295	-0.14925444471774493
-0.47782880418750295	-0.16718193159036848
-0.47776776903125295	-0.18463255823700778
-0.47770673387500295	-0.2015546401224375
-0.47764569871875295	-0.21789807793982063
-0.47758466356250295	-0.23361441100730662
-0.47752362840625295	-0.24865697501678716
-0.47746259325000295	-0.26298107497916956
-0.47740155809375295	-0.2765441068165995
-0.47734052293750295	-0.2893056103075153
-0.47727948778125295	-0.3012275291507472
-0.47721845262500295	-0.31227420187532645
-0.47715741746875295	-0.3224124813722243
-0.47709638231250295	-0.33161194628235025
-0.47703534715625295	-0.3398448264888384
-0.47697431200000295	-0.3470861931149888
-0.47691327684375295	-0.3533140379729436
-0.47685224168750295	-0.35850925684388396
-0.47679120653125295	-0.36265579272355325
-0.47673017137500295	-0.36574065272312367
-0.47666913621875295	-0.367753919054769
-0.47660810106250295	-0.3686888350787252
-0.47654706590625295	-0.3685417860535104
-0.47648603075000295	-0.3673123197878348
-0.47642499559375295	-0.36500316933037374
-0.47636396043750295	-0.3616202152268532
-0.47630292528125295	-0.3571725027231328
-0.47624189012500295	-0.3516721848029538
-0.47618085496875295	-0.3451345247874896
-0.47611981981250295	-0.33757781534788267
-0.47605878465625295	-0.3290233504630184
-0.47599774950000295	-0.3194953807046163
-0.47593671434375295	-0.3090209759281669
-0.47587567918750295	-0.29763005092642125
-0.47581464403125295	-0.2853551848296088
-0.47575360887500295	-0.27223157034292034
-0.47569257371875295	-0.25829693410989124
-0.47563153856250295	-0.24359135904793494
-0.47557050340625295	-0.22815725339099377
-0.47550946825000295	-0.2120391576047432
-0.47544843309375295	-0.19528364917806196
-0.47538739793750295	-0.17793921600180945
-0.47532636278125295	-0.1600560683578983
-0.47526532762500295	-0.14168606348698534
-0.47520429246875295	-0.12288248532124814
-0.47514325731250295	-0.10369994141264255
-0.47508222215625295	-0.08419416803190677
-0.47502118700000295	-0.06442187859992526
-0.47496015184375295	-0.044440648234565935
-0.47489911668750295	-0.024308607186011057
-0.47483808153125295	-0.004084460524941307
-0.47477704637500295	0.01617284060307372
-0.47471601121875295	0.0364042172303953
-0.47465497606250295	0.05655056401502685
-0.47459394090625295	0.07655308398943234
-0.47453290575000295	0.09635329321715007
-0.47447187059375295	0.1158932943608469
-0.47441083543750295	0.1351159182064362
-0.47434980028125295	0.1539648898814152
-0.47428876512500295	0.17238499048775036
-0.47422772996875295	0.19032223130449352
-0.47416669481250295	0.20772400968697108
-0.47410565965625295	0.22453923721591945
-0.47404462450000295	0.24071855798538
-0.47398358934375295	0.2562144117805983
-0.47392255418750295	0.2709812184762963
-0.47386151903125295	0.28497553563674344
-0.47380048387500295	0.2981561270595424
-0.47373944871875295	0.31048412636815415
-0.47367841356250295	0.32192316356058454
-0.47361737840625295	0.33243941217596434
-0.47355634325000295	0.3420017730778061
-0.47349530809375295	0.35058189853965405
-0.47343427293750295	0.35815429984777947
-0.47337323778125295	0.3646964574068547
-0.47331220262500295	0.3701888119667881
-0.47325116746875295	0.37461491820141374
-0.47319013231250295	0.3779614059667206
-0.47312909715625295	0.38021807949227193
-0.47306806200000295	0.38137793955628513
-0.47300702684375295	0.38143716770693703
-0.47294599168750295	0.38039520282487543
-0.47288495653125295	0.3782546834251141
-0.47282392137500295	0.37502148264280183
-0.47276288621875295	0.3707046731400155
-0.47270185106250295	0.36531650649455255
-0.47264081590625295	0.3588723833736225
-0.47257978075000295	0.3513908013483179
-0.47251874559375295	0.34289331082900115
-0.47245771043750295	0.3334044447101426
-0.47239667528125295	0.32295166411048976
-0.47233564012500295	0.3115652483095982
-0.47227460496875295	0.29927823916506313
-0.47221356981250295	0.2861263407948768
-0.47215253465625295	0.2721477817136734
-0.47209149950000295	0.25738325676271573
-0.47203046434375295	0.24187577254961923
-0.47196942918750295	0.2256705123026198
-0.47190839403125295	0.20881475705574262
-0.47184735887500295	0.19135769113661294
-0.47178632371875295	0.1733502867719567
-0.47172528856250295	0.1548451438782511
-0.47166425340625295	0.13589634920797258
-0.47160321825000295	0.11655930877468837
-0.47154218309375295	0.09689057428805177
-0.47148114793750295	0.07694772109036664
-0.47142011278125295	0.05678910046800882
-0.47135907762500295	0.03647377173330724
-0.47129804246875295	0.016061206142295392
-0.47123700731250295	-0.0043887587694023626
-0.47117597215625295	-0.024816175132676387
-0.47111493700000295	-0.04516120301019249
-0.47105390184375295	-0.06536411025247789
-0.47099286668750295	-0.08536569240695689
-0.47093183153125295	-0.10510722825613318
-0.47087079637500295	-0.12453080073661955
-0.47080976121875295	-0.14357937844967214
-0.47074872606250295	-0.16219703366453758
-0.47068769090625295	-0.18032911896496098
-0.47062665575000295	-0.197922322740537
-0.47056562059375295	-0.2149250251796894
-0.47050458543750295	-0.23128721228718072
-0.47044355028125295	-0.24696083952130773
