Time	Frequency
-0.5000138280937563	-2.6259744879670426e-25
-0.4999527929375063	-1.8446159588276042e-25
-0.4998917577812563	-1.0566029470308267e-25
-0.4998307226250063	-2.6487203873504614e-26
-0.4997696874687563	5.276249214493333e-26
-0.4997086523125063	1.3179296660632338e-25
-0.4996476171562563	2.1030966120481333e-25
-0.4995865820000063	2.8801935339159537e-25
-0.4995255468437563	3.6463204512250532e-25
-0.4994645116875063	4.398618590460331e-25
-0.4994034765312563	5.134277857966156e-25
-0.4993424413750063	5.850553116630782e-25
-0.4992814062187563	6.544769265628954e-25
-0.4992203710625063	7.214335317158736e-25
-0.4991593359062563	7.85675155558003e-25
-0.4990983007500063	8.469619732495199e-25
-0.4990372655937563	9.050654833906265e-25
-0.4989762304375063	9.597687867056851e-25
-0.4989151952812563	1.010867906682203e-24
-0.4988541601250063	1.0581726813695825e-24
-0.4987931249687563	1.1015067286631513e-24
-0.4987320898125063	1.140708905468221e-24
-0.4986710546562563	1.1756337392862083e-24
-0.4986100195000063	1.2061515157901822e-24
-0.4985489843437563	1.2321494280931096e-24
-0.4984879491875063	1.2535315973943821e-24
-0.4984269140312563	1.2702195303760085e-24
-0.4983658788750063	1.2821525192291622e-24
-0.4983048437187563	1.2892877059168103e-24
-0.4982438085625063	1.291600455659759e-24
-0.4981827734062563	1.2890842626012373e-24
-0.4981217382500063	1.2817508828723768e-24
-0.4980607030937563	1.2696303389260098e-24
-0.4979996679375063	1.2527706511122815e-24
-0.4979386327812563	1.2312378372819274e-24
-0.4978775976250063	1.2051155895993348e-24
-0.4978165624687563	1.1745049031652051e-24
-0.4977555273125063	1.1395238339495242e-24
-0.4976944921562563	1.1003069864962587e-24
-0.4976334570000063	1.0570049295475958e-24
-0.4975724218437563	1.0097837705940883e-24
-0.4975113866875063	9.588245575789735e-25
-0.4974503515312563	9.04322268974365e-25
-0.4973893163750063	8.464855181604541e-25
-0.4973282812187563	7.855356663035601e-25
-0.4972672460625063	7.2170551952380245e-25
-0.4972062109062563	6.552391418169135e-25
-0.4971451757500063	5.8639062259508965e-25
-0.4970841405937563	5.154228076564629e-25
-0.4970231054375063	4.426068634641816e-25
-0.4969620702812563	3.6822103882101224e-25
-0.4969010351250063	2.925492484746336e-25
-0.4968399999687563	2.1588055921173672e-25
-0.4967789648125063	1.3850790461189983e-25
-0.4967179296562563	6.072662300707888e-26
-0.4966568945000063	-1.7166131547684136e-26
-0.4965958593437563	-9.487276134270803e-26
-0.4965348241875063	-1.720965979330041e-25
-0.4964737890312563	-2.4854246077493377e-25
-0.4964127538750063	-3.239182344162009e-25
-0.4963517187187563	-3.9793611361625333e-25
-0.4962906835625063	-4.703128402215172e-25
-0.4962296484062563	-5.407720278111978e-25
-0.4961686132500063	-6.090442160752531e-25
-0.4961075780937563	-6.748680595003666e-25
-0.4960465429375063	-7.379921696883955e-25
-0.4959855077812563	-7.981746702266839e-25
-0.4959244726250063	-8.551853230355103e-25
-0.4958634374687563	-9.088059094128036e-25
-0.4958024023125063	-9.588309391220554e-25
-0.4957413671562563	-1.0050687690975398e-24
-0.4956803320000063	-1.0473420783526308e-24
-0.4956192968437563	-1.0854887984675245e-24
-0.4955582616875063	-1.1193623867411155e-24
-0.4954972265312563	-1.1488327297704647e-24
-0.4954361913750063	-1.1737865369224228e-24
-0.4953751562187563	-1.1941276108087486e-24
-0.4953141210625063	-1.2097774721652626e-24
-0.4952530859062563	-1.2206755800452338e-24
-0.4951920507500063	-1.2267794391209612e-24
-0.4951310155937563	-1.2280649421450688e-24
-0.4950699804375063	-1.2245264391510891e-24
-0.4950089452812563	-1.216176672080398e-24
-0.4949479101250063	-1.2030468059705096e-24
-0.4948868749687563	-1.1851863525550498e-24
-0.4948258398125063	-1.1626629057933078e-24
-0.4947648046562563	-1.1355619351035691e-24
-0.4947037695000063	-1.1039864953880789e-24
-0.4946427343437563	-1.0680567795456e-24
-0.4945816991875063	-1.0279097269374804e-24
-0.4945206640312563	-9.836984644961826e-25
-0.4944596288750063	-9.355917654708753e-25
-0.4943985937187563	-8.837733782420828e-25
-0.4943375585625063	-8.284413784063667e-25
-0.4942765234062563	-7.698074111165231e-25
-0.4942154882500063	-7.080957295304012e-25
-0.4941544530937563	-6.435427489531976e-25
-0.4940934179375063	-5.763956678825037e-25
-0.4940323827812563	-5.069117450706469e-25
-0.4939713476250063	-4.353575990862628e-25
-0.4939103124687563	-3.6200757494562946e-25
-0.4938492773125063	-2.871432705950859e-25
-0.4937882421562563	-2.110522323595838e-25
-0.4937272070000063	-1.340267478969918e-25
-0.4936661718437563	-5.636297542266085e-26
-0.4936051366875063	2.1640240785228615e-26
-0.4935441015312563	9.968280680648833e-26
-0.4934830663750063	1.774641199641757e-25
-0.4934220312187563	2.5468424601434785e-25
-0.4933609960625063	3.3104563062792397e-25
-0.4932999609062563	4.0625339037601046e-25
-0.4932389257500063	4.800169930541647e-25
-0.4931778905937563	5.5205144190382585e-25
-0.4931168554375063	6.22077822262326e-25
-0.4930558202812563	6.898249427244214e-25
-0.4929947851250063	7.550301700665935e-25
-0.4929337499687563	8.174402573688635e-25
-0.4928727148125063	8.768125476386208e-25
-0.4928116796562563	9.32915910841068e-25
-0.4927506445000063	9.855314588455051e-25
-0.4926896093437563	1.03445350090482e-24
-0.4926285741875063	1.079490382853051e-24
-0.4925675390312563	1.120465117579472e-24
-0.4925065038750063	1.157216198738614e-24
-0.4924454687187563	1.189598005569002e-24
-0.4923844335625063	1.217481661102252e-24
-0.4923233984062563	1.2407554257832563e-24
-0.4922623632500063	1.2593248512832641e-24
-0.4922013280937563	1.2731136810700705e-24
-0.4921402929375063	1.282063798487897e-24
-0.4920792577812563	1.2861353740831725e-24
-0.4920182226250063	1.2853074162553046e-24
-0.4919571874687563	1.2795775420517736e-24
-0.4918961523125063	1.2689620371941766e-24
-0.4918351171562563	1.2534959793401856e-24
-0.4917740820000063	1.2332329199776741e-24
-0.4917130468437563	1.2082447981696604e-24
-0.4916520116875063	1.1786216615275194e-24
-0.4915909765312563	1.1444712945967412e-24
-0.4915299413750063	1.1059188910014457e-24
-0.4914689062187563	1.0631064986035453e-24
-0.4914078710625063	1.01619253786227e-24
-0.4913468359062563	9.653512633568162e-25
-0.4912858007500063	9.107719256575655e-25
-0.4912247655937563	8.526582768567004e-25
-0.4911637304375063	7.91227709244578e-25
-0.4911026952812563	7.267103058291908e-25
-0.4910416601250063	6.5934821167435215e-25
-0.4909806249687563	5.893945402939852e-25
-0.4909195898125063	5.171124760181001e-25
-0.4908585546562563	4.427742247656953e-25
-0.4907975195000063	3.666601140286238e-25
-0.4907364843437563	2.890573017140947e-25
-0.4906754491875063	2.1025890811494236e-25
-0.4906144140312563	1.3056278303217124e-25
-0.4905533788750063	5.0270278575771446e-26
-0.4904923437187563	-3.0314477887560137e-26
-0.4904313085625063	-1.1088650996371853e-25
-0.4903702734062563	-1.9114035478119902e-25
-0.4903092382500063	-2.707716030989768e-25
-0.4902482030937563	-3.4947834966009603e-25
-0.4901871679375063	-4.269615970838286e-25
-0.4901261327812563	-5.02927133007496e-25
-0.4900650976250063	-5.770863840509294e-25
-0.4900040624687563	-6.491573213442654e-25
-0.4899430273125063	-7.188657798250697e-25
-0.4898819921562563	-7.8594664228136175e-25
-0.4898209570000063	-8.501444426941122e-25
-0.4897599218437563	-9.112146257985332e-25
-0.4896988866875063	-9.689245884830062e-25
-0.4896378515312563	-1.023054259757068e-24
-0.4895768163750063	-1.0733971976663417e-24
-0.4895157812187563	-1.1197612546465835e-24
-0.4894547460625063	-1.161969501661734e-24
-0.4893937109062563	-1.1998605922289327e-24
-0.4893326757500063	-1.233289693043257e-24
-0.4892716405937563	-1.2621290085287597e-24
-0.4892106054375063	-1.2862679553791409e-24
-0.4891495702812563	-1.3056140927809221e-24
-0.4890885351250063	-1.3200931371482548e-24
-0.4890274999687563	-1.329649268748993e-24
-0.4889664648125063	-1.3342455834140675e-24
-0.4889054296562563	-1.3338640017964941e-24
-0.4888443945000063	-1.3285054370706576e-24
-0.4887833593437563	-1.3181898590890866e-24
-0.4887223241875063	-1.3029561313657246e-24
-0.4886612890312563	-1.2828618981777291e-24
-0.4886002538750063	-1.2579834353739869e-24
-0.4885392187187563	-1.2284152773175983e-24
-0.4884781835625063	-1.1942698688961846e-24
-0.4884171484062563	-1.1556772720563941e-24
-0.4883561132500063	-1.1127844831873582e-24
-0.4882950780937563	-1.0657549786172453e-24
-0.4882340429375063	-1.014768173403956e-24
-0.4881730077812563	-9.60018549564653e-25
-0.4881119726250063	-9.017150603395155e-25
-0.4880509374687563	-8.40080302217746e-25
-0.4879899023125063	-7.753496458898192e-25
-0.4879288671562563	-7.0777039880927195e-25
-0.4878678320000063	-6.376007074904049e-25
-0.4878067968437563	-5.651087201192003e-25
-0.4877457616875063	-4.905716880986674e-25
-0.4876847265312563	-4.142744382006629e-25
-0.4876236913750063	-3.3650869521103205e-25
-0.4875626562187563	-2.575721096916221e-25
-0.4875016210625063	-1.7776639288516854e-25
-0.4874405859062563	-9.739692226035015e-26
-0.4873795507500063	-1.677130739575488e-26
-0.4873185155937563	6.380207787562907e-26
-0.4872574804375063	1.4401477849440501e-25
-0.4871964452812563	2.235598353481878e-25
-0.4871354101250063	3.021327963467991e-25
-0.4870743749687563	3.7943288107134135e-25
-0.4870133398125063	4.551642258730157e-25
-0.4869523046562563	5.290369659079914e-25
-0.4868912695000063	6.007682685109113e-25
-0.4868302343437563	6.700836434282116e-25
-0.4867691991875063	7.367178154760617e-25
-0.4867081640312563	8.00415763479195e-25
-0.4866471288750063	8.609338328160446e-25
-0.4865860937187563	9.18040465590369e-25
-0.4865250585625063	9.715174086713193e-25
-0.4864640234062563	1.0211601748269124e-24
-0.4864029882500063	1.0667791024914239e-24
-0.4863419530937563	1.1082001522016227e-24
-0.4862809179375063	1.1452651987283066e-24
-0.4862198827812563	1.1778331159574825e-24
-0.4861588476250063	1.2057800380439214e-24
-0.4860978124687563	1.2289998139841672e-24
-0.4860367773125063	1.2474047221031871e-24
-0.4859757421562563	1.2609254421663242e-24
-0.4859147070000063	1.2695115568094731e-24
-0.4858536718437563	1.2731317649268668e-24
-0.4857926366875063	1.2717738245778263e-24
-0.4857316015312563	1.2654448200300144e-24
-0.4856705663750063	1.2541709998675497e-24
-0.4856095312187563	1.237997746919996e-24
-0.4855484960625063	1.2169893790534656e-24
-0.4854874609062563	1.1912289290449719e-24
-0.4854264257500063	1.1608178267170434e-24
-0.4853653905937563	1.1258754923626411e-24
-0.4853043554375063	1.0865389303737093e-24
-0.4852433202812563	1.042962133702125e-24
-0.4851822851250063	9.953155843335507e-25
-0.4851212499687563	9.437854990445567e-25
-0.4850602148125063	8.885732352285478e-25
-0.4849991796562563	8.29894394922641e-25
-0.4849381445000063	7.679780722934947e-25
-0.4848771093437563	7.0306601316176875e-25
-0.4848160741875063	6.35411500999238e-25
-0.4847550390312563	5.652786414695094e-25
-0.4846940038750063	4.929411285856615e-25
-0.4846329687187563	4.1868133792365e-25
-0.4845719335625063	3.427891175972367e-25
-0.4845108984062563	2.6556068327463797e-25
-0.4844498632500063	1.872977280773827e-25
-0.4843888280937563	1.083057332466817e-25
-0.4843277929375063	2.88933402647e-26
-0.4842667577812563	-5.062914315443427e-26
-0.4842057226250063	-1.2995095806424326e-25
-0.4841446874687563	-2.087619221564763e-25
-0.4840836523125063	-2.867538525708297e-25
-0.4840226171562563	-3.636214060319361e-25
-0.4839615820000063	-4.390639122350538e-25
-0.4839005468437563	-5.127857081909339e-25
-0.4838395116875063	-5.844977866431423e-25
-0.4837784765312563	-6.539192572295994e-25
-0.4837174413750063	-7.207773733960399e-25
-0.4836564062187563	-7.84809611919498e-25
-0.4835953710625063	-8.45764480497752e-25
-0.4835343359062563	-9.034018494517473e-25
-0.4834733007500063	-9.574948144706932e-25
-0.4834122655937563	-1.0078300371521217e-24
-0.4833512304375063	-1.0542084747844792e-24
-0.4832901952812563	-1.0964467501824518e-24
-0.4832291601250063	-1.1343771581340254e-24
-0.4831681249687563	-1.16784884924627e-24
-0.4831070898125063	-1.1967282429585155e-24
-0.4830460546562563	-1.2208993753789448e-24
-0.4829850195000063	-1.2402647757820446e-24
-0.4829239843437563	-1.2547454389169256e-24
-0.4828629491875063	-1.2642813489255194e-24
-0.4828019140312563	-1.2688317471324309e-24
-0.4827408788750063	-1.2683751719703146e-24
-0.4826798437187563	-1.2629096688418949e-24
-0.4826188085625063	-1.2524527333613876e-24
-0.4825577734062563	-1.2370412997572271e-24
-0.4824967382500063	-1.2167316011288279e-24
-0.4824357030937563	-1.1915989252168713e-24
-0.4823746679375063	-1.161737383064933e-24
-0.4823136327812563	-1.127259541833354e-24
-0.4822525976250063	-1.0882959622471295e-24
-0.4821915624687563	-1.0449947454547667e-24
-0.4821305273125063	-9.975209698858584e-25
-0.4820694921562563	-9.46056001917529e-25
-0.4820084570000063	-8.907968900809488e-25
-0.4819474218437563	-8.3195551413863e-25
-0.4818863866875063	-7.69757885427402e-25
-0.4818253515312563	-7.044431411446161e-25
-0.4817643163750063	-6.362626950539522e-25
-0.4817032812187563	-5.654794089218306e-25
-0.4816422460625063	-4.923662020533482e-25
-0.4815812109062563	-4.172053895342805e-25
-0.4815201757500063	-3.402874997036447e-25
-0.4814591405937563	-2.619098618333926e-25
-0.4813981054375063	-1.8237587985185324e-25
-0.4813370702812563	-1.0199361187401144e-25
-0.4812760351250063	-2.1074520277621262e-26
-0.4812149999687563	6.006745596340535e-26
-0.4811539648125063	1.411174606614346e-25
-0.4810929296562563	2.2176068638785095e-25
-0.4810318945000063	3.0168366349492565e-25
-0.4809708593437563	3.8057567579918055e-25
-0.4809098241875063	4.581295077859662e-25
-0.4808487890312563	5.340431568323722e-25
-0.4807877538750063	6.080208632949176e-25
-0.4807267187187563	6.797737696731293e-25
-0.4806656835625063	7.490218689857239e-25
-0.4806046484062563	8.154946308131927e-25
-0.4805436132500063	8.789318388301188e-25
-0.4804825780937563	9.390851966443723e-25
-0.4804215429375063	9.957188458731973e-25
-0.4803605077812563	1.0486104298517105e-24
-0.4802994726250063	1.0975519702351972e-24
-0.4802384374687563	1.142350762433229e-24
-0.4801774023125063	1.1828299463355252e-24
-0.4801163671562563	1.2188292971340408e-24
-0.4800553320000063	1.2502060672440365e-24
-0.4799942968437563	1.2768350715246145e-24
-0.4799332616875063	1.2986096353939064e-24
-0.4798722265312563	1.3154419042308123e-24
-0.4798111913750063	1.3272629499893652e-24
-0.4797501562187563	1.3340234043887324e-24
-0.4796891210625063	1.3356934808793442e-24
-0.4796280859062563	1.3322630384682457e-24
-0.4795670507500063	1.3237417963300696e-24
-0.4795060155937563	1.310159213506028e-24
-0.4794449804375063	1.2915643737737017e-24
-0.4793839452812563	1.2680258527297587e-24
-0.4793229101250063	1.2396314482379252e-24
-0.4792618749687563	1.2064878276981102e-24
-0.4792008398125063	1.1687201475748567e-24
-0.4791398046562563	1.126471575150641e-24
-0.4790787695000063	1.0799027353799281e-24
-0.4790177343437563	1.029191076889686e-24
-0.4789566991875063	9.745302765431041e-25
-0.4788956640312563	9.16129314893644e-25
-0.4788346288750063	8.542118956638897e-25
-0.4787735937187563	7.890155273934232e-25
-0.4787125585625063	7.207902331526194e-25
-0.4786515234062563	6.497983686638611e-25
-0.4785904882500063	5.763128902672972e-25
-0.4785294530937563	5.006163733063012e-25
-0.4784684179375063	4.230005659509895e-25
-0.4784073827812563	3.4376446104303535e-25
-0.4783463476250063	2.632133688052229e-25
-0.4782853124687563	1.8165822751379842e-25
-0.4782242773125063	9.941376874402334e-26
-0.4781632421562563	1.6797259868867236e-26
-0.4781022070000063	-6.58718490087894e-26
-0.4780411718437563	-1.4827432843363736e-25
-0.4779801366875063	-2.3009168013628304e-25
-0.4779191015312563	-3.1100739316019263e-25
-0.4778580663750063	-3.9070872101773216e-25
-0.4777970312187563	-4.6888708444495275e-25
-0.4777359960625063	-5.452401934480083e-25
-0.4776749609062563	-6.194723353094194e-25
-0.4776139257500063	-6.912961365982602e-25
-0.4775528905937563	-7.604336612320692e-25
-0.4774918554375063	-8.266168900204531e-25
-0.4774308202812563	-8.895897454876729e-25
-0.4773697851250063	-9.49108192181333e-25
-0.4773087499687563	-1.0049416082789825e-24
-0.4772477148125063	-1.0568739236071769e-24
-0.4771866796562563	-1.1047037764439924e-24
-0.4771256445000063	-1.1482460548964126e-24
-0.4770646093437563	-1.1873322050795276e-24
-0.4770035741875063	-1.2218108460042063e-24
-0.4769425390312563	-1.2515487069069558e-24
-0.4768815038750063	-1.276430787415307e-24
-0.4768204687187563	-1.2963611308307185e-24
-0.4767594335625063	-1.3112629224302073e-24
-0.4766983984062563	-1.3210789688473045e-24
-0.4766373632500063	-1.3257719794615454e-24
-0.4765763280937563	-1.3253244929266044e-24
-0.4765152929375063	-1.3197391792435916e-24
-0.4764542577812563	-1.3090387375453117e-24
-0.4763932226250063	-1.293265820657384e-24
-0.4763321874687563	-1.2724828810047372e-24
-0.4762711523125063	-1.2467719339644866e-24
-0.4762101171562563	-1.2162342820500332e-24
-0.4761490820000063	-1.1809900618403558e-24
-0.4760880468437563	-1.141177793199953e-24
-0.4760270116875063	-1.0969539663801147e-24
-0.4759659765312563	-1.0484922003788119e-24
-0.4759049413750063	-9.959827917596012e-25
-0.4758439062187563	-9.39631938428402e-25
-0.4757828710625063	-8.796607283323891e-25
-0.4757218359062563	-8.163046270122143e-25
-0.4756608007500063	-7.498123133353248e-25
-0.4755997655937563	-6.804447280390286e-25
-0.4755387304375063	-6.0847414835649215e-25
-0.4754776952812563	-5.341831384162839e-25
-0.4754166601250063	-4.578633440421791e-25
-0.4753556249687563	-3.798143841920549e-25
-0.4752945898125063	-3.003426894351158e-25
-0.4752335546562563	-2.197604641669248e-25
-0.4751725195000063	-1.3838422222648979e-25
-0.4751114843437563	-5.653344774211855e-26
-0.4750504491875063	2.547004175117365e-26
-0.4749894140312563	1.0730407375258924e-25
-0.4749283788750063	1.8864708385845313e-25
-0.4748673437187563	2.691791681160326e-25
-0.4748063085625063	3.4858369542140627e-25
-0.4747452734062563	4.265484253868466e-25
-0.4746842382500063	5.02766640651675e-25
-0.4746232030937563	5.769383200124024e-25
-0.4745621679375063	6.487716449186741e-25
-0.4745011327812563	7.179837520627639e-25
-0.4744400976250063	7.843020779811644e-25
-0.4743790624687563	8.474653373768732e-25
-0.4743180273125063	9.072245699662044e-25
-0.4742569921562563	9.633442720045469e-25
-0.4741959570000063	1.0156029645063718e-24
-0.4741349218437563	1.0637945152629227e-24
-0.4740738866875063	1.1077285948560138e-24
-0.4740128515312563	1.147231617622814e-24
-0.4739518163750063	1.1821474752869411e-24
-0.4738907812187563	1.2123378562642512e-24
-0.4738297460625063	1.2376832373724265e-24
-0.4737687109062563	1.2580829979939843e-24
-0.4737076757500063	1.2734559734442966e-24
-0.4736466405937563	1.2837408363069626e-24
-0.4735856054375063	1.2888961818164993e-24
-0.4735245702812563	1.2889008836997967e-24
-0.4734635351250063	1.2837540447473236e-24
-0.4734024999687563	1.2734750781239796e-24
-0.4733414648125063	1.2581036316431889e-24
-0.4732804296562563	1.2376994389809138e-24
-0.4732193945000063	1.2123420691114934e-24
-0.4731583593437563	1.1821306577042857e-24
-0.4730973241875063	1.1471835332482287e-24
-0.4730362890312563	1.1076376906491333e-24
-0.4729752538750063	1.0636483388832071e-24
-0.4729142187187563	1.0153883074888613e-24
-0.4728531835625063	9.630472702167196e-25
-0.4727921484062563	9.0683105844966e-25
-0.4727311132500063	8.469610125798741e-25
-0.4726700780937563	7.836728155865922e-25
-0.4726090429375063	7.172157918480045e-25
-0.4725480077812563	6.478519456286628e-25
-0.4724869726250063	5.758547688984445e-25
-0.4724259374687563	5.0150832444908e-25
-0.4723649023125063	4.2510604502320175e-25
-0.4723038671562563	3.469495865467191e-25
-0.4722428320000063	2.6734783109668014e-25
-0.4721817968437563	1.8661525711349902e-25
-0.4721207616875063	1.0507105155763198e-25
-0.4720597265312563	2.3038040025482926e-26
-0.4719986913750063	-5.915939289914199e-26
-0.4719376562187563	-1.4119563221834414e-25
-0.4718766210625063	-2.227456139216033e-25
-0.4718155859062563	-3.034862077827806e-25
-0.4717545507500063	-3.830971134818359e-25
-0.4716935155937563	-4.6126239299008105e-25
-0.4716324804375063	-5.3767163537008e-25
