Time	Frequency
-0.500022887781256	1.181409508491792e-24
-0.49996185262500603	1.1963699479941807e-24
-0.49990081746875603	1.2065776577648792e-24
-0.49983978231250603	1.2119871476744478e-24
-0.49977874715625603	1.212572503077296e-24
-0.49971771200000603	1.208327414962135e-24
-0.49965667684375603	1.1992651220842217e-24
-0.49959564168750603	1.1854185087157686e-24
-0.49953460653125603	1.1668399386745608e-24
-0.49947357137500603	1.1436009680368634e-24
-0.49941253621875603	1.1157921995313641e-24
-0.49935150106250603	1.0835228570090398e-24
-0.49929046590625603	1.0469202639673732e-24
-0.49922943075000603	1.0061295427667924e-24
-0.49916839559375603	9.613128516211913e-25
-0.49910736043750603	9.126487281633373e-25
-0.49904632528125603	8.603315978574332e-25
-0.49898529012500603	8.04570648277523e-25
-0.49892425496875603	7.45589225617367e-25
-0.49886321981250603	6.836239906920892e-25
-0.49880218465625603	6.189235379078602e-25
-0.49874114950000603	5.517480200124621e-25
-0.49868011434375603	4.823675783323901e-25
-0.49861907918750603	4.11061310256545e-25
-0.49855804403125603	3.3811656932887252e-25
-0.49849700887500603	2.6382717548646864e-25
-0.49843597371875603	1.8849264684091316e-25
-0.49837493856250603	1.124168682703649e-25
-0.49831390340625603	3.5906741605097514e-26
-0.49825286825000603	-4.072880908597837e-26
-0.49819183309375603	-1.171804715257971e-25
-0.49813079793750603	-1.9313946779364052e-25
-0.49806976278125603	-2.6829883900305625e-25
-0.49800872762500603	-3.4235507736968296e-25
-0.49794769246875603	-4.15008920042477e-25
-0.49788665731250603	-4.859667023880255e-25
-0.49782562215625603	-5.549416691799956e-25
-0.49776458700000603	-6.2165525737378245e-25
-0.49770355184375603	-6.858377167605553e-25
-0.49764251668750603	-7.472297422390582e-25
-0.49758148153125603	-8.055836199601247e-25
-0.49752044637500603	-8.606633699324277e-25
-0.49745941121875603	-9.122469270825867e-25
-0.49739837606250603	-9.601262089314311e-25
-0.49733734090625603	-1.0041080546459026e-24
-0.49727630575000603	-1.0440156021470194e-24
-0.49721527059375603	-1.0796881785916369e-24
-0.49715423543750603	-1.1109825846185434e-24
-0.49709320028125603	-1.1377735466994094e-24
-0.49703216512500603	-1.159954035755773e-24
-0.49697112996875603	-1.1774358877409014e-24
-0.49691009481250603	-1.1901502033414621e-24
-0.49684905965625603	-1.198047512306135e-24
-0.49678802450000603	-1.201098003633453e-24
-0.49672698934375603	-1.1992917719425258e-24
-0.49666595418750603	-1.19263871888937e-24
-0.49660491903125603	-1.1811686002137539e-24
-0.49654388387500603	-1.1649308751456003e-24
-0.49648284871875603	-1.1439945554419904e-24
-0.49642181356250603	-1.1184478565864216e-24
-0.49636077840625603	-1.0883979034793123e-24
-0.49629974325000603	-1.053970312139661e-24
-0.49623870809375603	-1.0153085190434059e-24
-0.49617767293750603	-9.725735052858665e-25
-0.49611663778125603	-9.259428220834077e-25
-0.49605560262500603	-8.756099865884323e-25
-0.49599456746875603	-8.2178384880710075e-25
-0.49593353231250603	-7.646874594725641e-25
-0.49587249715625603	-7.0455739507432e-25
-0.49581146200000603	-6.416425547745968e-25
-0.49575042684375603	-5.762034720956339e-25
-0.49568939168750603	-5.085109169770434e-25
-0.49562835653125603	-4.38844887288308e-25
-0.49556732137500603	-3.6749367924854676e-25
-0.49550628621875603	-2.9475230417004605e-25
-0.49544525106250603	-2.2092169654837053e-25
-0.49538421590625603	-1.46307091402955e-25
-0.49532318075000603	-7.121706701538094e-26
-0.49526214559375603	4.037816354778954e-27
-0.49520111043750603	7.91464304787317e-26
-0.49514007528125603	1.5379816878621256e-25
-0.49507904012500603	2.2768423151690855e-25
-0.49501800496875603	3.0049906548140796e-25
-0.49495696981250603	3.719416202593282e-25
-0.49489593465625603	4.417161770639463e-25
-0.49483489950000603	5.095341463593967e-25
-0.49477386434375603	5.751150690155031e-25
-0.49471282918750603	6.381873761774367e-25
-0.49465179403125603	6.984900212137021e-25
-0.49459075887500603	7.557736331460229e-25
-0.49452972371875603	8.098007834104149e-25
-0.49446868856250603	8.603477843928675e-25
-0.49440765340625603	9.072054410946342e-25
-0.49434661825000603	9.501794184776206e-25
-0.49428558309375603	9.890917294081719e-25
-0.49422454793750603	1.0237810136781206e-24
-0.49416351278125603	1.0541034532055212e-24
-0.49410247762500603	1.0799332110498654e-24
-0.49404144246875603	1.101163008385857e-24
-0.49398040731250603	1.1177047383773917e-24
-0.49391937215625603	1.1294895429274383e-24
-0.49385833700000603	1.136468296910169e-24
-0.49379730184375603	1.1386118381220908e-24
-0.49373626668750603	1.135910984624803e-24
-0.49367523153125603	1.1283766138711571e-24
-0.49361419637500603	1.1160397217628053e-24
-0.49355316121875603	1.0989511543482942e-24
-0.49349212606250603	1.077181515909464e-24
-0.49343109090625603	1.0508208543080386e-24
-0.49337005575000603	1.019978263130537e-24
-0.49330902059375603	9.84781527980593e-25
-0.49324798543750603	9.453764556173533e-25
-0.49318695028125603	9.019264853439352e-25
-0.49312591512500603	8.546118359309048e-25
-0.49306487996875603	8.036288189972099e-25
-0.49300384481250603	7.491891719341261e-25
-0.49294280965625603	6.91518941915713e-25
-0.49288177450000603	6.308577804838457e-25
-0.49282073934375603	5.674578393253362e-25
-0.49275970418750603	5.015827762408185e-25
-0.49269866903125603	4.335066295601867e-25
-0.49263763387500603	3.6351275222829713e-25
-0.49257659871875603	2.9189261287090067e-25
-0.49251556356250603	2.189445445012662e-25
-0.49245452840625603	1.4497267187266755e-25
-0.49239349325000603	7.028536735916353e-26
-0.49233245809375603	-4.8057057163162035e-27
-0.49227142293750603	-7.998699716466199e-26
-0.49221038778125603	-1.5494449581332512e-25
-0.49214935262500603	-2.293649383486549e-25
-0.49208831746875603	-3.0293694103248745e-25
-0.49202728231250603	-3.753525124618294e-25
-0.49196624715625603	-4.463084178916005e-25
-0.49190521200000603	-5.155069691838188e-25
-0.49184417684375603	-5.826578481516733e-25
-0.49178314168750603	-6.474788844673901e-25
-0.49172210653125603	-7.096974028243276e-25
-0.49166107137500603	-7.690514253263109e-25
-0.49160003621875603	-8.252904539250917e-25
-0.49153900106250603	-8.781770419663129e-25
-0.49147796590625603	-9.274871880759996e-25
-0.49141693075000603	-9.730117051114148e-25
-0.49135589559375603	-1.0145570045890747e-24
-0.49129486043750603	-1.0519456371941594e-24
-0.49123382528125603	-1.0850175016192658e-24
-0.49117279012500603	-1.1136301583041135e-24
-0.49111175496875603	-1.1376594966305907e-24
-0.49105071981250603	-1.1570003811012351e-24
-0.49098968465625603	-1.1715670474529153e-24
-0.49092864950000603	-1.1812933755409667e-24
-0.49086761434375603	-1.1861332644196135e-24
-0.49080657918750603	-1.1860608954793819e-24
-0.49074554403125603	-1.1810706968057054e-24
-0.49068450887500603	-1.1711774703883353e-24
-0.49062347371875603	-1.1564163898868157e-24
-0.49056243856250603	-1.1368427708845841e-24
-0.49050140340625603	-1.1125318865808186e-24
-0.49044036825000603	-1.0835787239424754e-24
-0.49037933309375603	-1.0500975345356323e-24
-0.49031829793750603	-1.0122213978266376e-24
-0.49025726278125603	-9.701016803749417e-25
-0.49019622762500603	-9.239074561770355e-25
-0.49013519246875603	-8.738247644132971e-25
-0.49007415731250603	-8.2005584747936e-25
-0.49001312215625603	-7.628184108010503e-25
-0.48995208700000603	-7.0234464801630725e-25
-0.48989105184375603	-6.388802475278449e-25
-0.48983001668750603	-5.72683537512594e-25
-0.48976898153125603	-5.040243463663847e-25
-0.48970794637500603	-4.3318272350766185e-25
-0.48964691121875603	-3.6044816393819083e-25
-0.48958587606250603	-2.8611808878597855e-25
-0.48952484090625603	-2.104965958197616e-25
-0.48946380575000603	-1.3389363694502078e-25
-0.48940277059375603	-5.662320090353376e-26
-0.48934173543750603	2.099776271238966e-26
-0.48928070028125603	9.865040269049734e-26
-0.48921966512500603	1.7601579174929596e-25
-0.48915862996875603	2.5277586599305144e-25
-0.48909759481250603	3.286147675320717e-25
-0.48903655965625603	4.03220374896541e-25
-0.48897552450000603	4.762854113785474e-25
-0.48891448934375603	5.475088214096153e-25
-0.48885345418750603	6.165967829057511e-25
-0.48879241903125603	6.832643768190645e-25
-0.48873138387500603	7.472364221267394e-25
-0.48867034871875603	8.082485137000664e-25
-0.48860931356250603	8.660486587674825e-25
-0.48854827840625603	9.203977564030329e-25
-0.48848724325000603	9.710708339565426e-25
-0.48842620809375603	1.0178581376588035e-24
-0.48836517293750603	1.0605657237121534e-24
-0.48830413778125603	1.0990163779382353e-24
-0.48824310262500603	1.1330505102430275e-24
-0.48818206746875603	1.1625266084168397e-24
-0.48812103231250603	1.1873218742881202e-24
-0.48805999715625603	1.2073329334009308e-24
-0.48799896200000603	1.2224760153377738e-24
-0.48793792684375603	1.2326874263569747e-24
-0.48787689168750603	1.2379239145381945e-24
-0.48781585653125603	1.2381626711174342e-24
-0.48775482137500603	1.2334015578105754e-24
-0.48769378621875603	1.223659152113549e-24
-0.48763275106250603	1.2089745393397366e-24
-0.48757171590625603	1.1894073150687176e-24
-0.48751068075000603	1.1650372511506349e-24
-0.48744964559375603	1.1359640154212529e-24
-0.48738861043750603	1.1023067496594685e-24
-0.48732757528125603	1.0642035591304816e-24
-0.48726654012500603	1.0218110720106043e-24
-0.48720550496875603	9.753035941612652e-25
-0.48714446981250603	9.24872551197876e-25
-0.48708343465625603	8.707256595498757e-25
-0.48702239950000603	8.130860869583383e-25
-0.48696136434375603	7.521914658334982e-25
-0.48690032918750603	6.882928913794735e-25
-0.48683929403125603	6.216542047191066e-25
-0.48677825887500603	5.525503657601602e-25
-0.48671722371875603	4.812666120530748e-25
-0.48665618856250603	4.0809761516958125e-25
-0.48659515340625603	3.3334545161578425e-25
-0.48653411825000603	2.5731901118208637e-25
-0.48647308309375603	1.8033266311700633e-25
-0.48641204793750603	1.0270445687142604e-25
-0.48635101278125603	2.4755455519517263e-26
-0.48628997762500603	-5.319201610981393e-26
-0.48622894246875603	-1.3081572305792612e-25
-0.48616790731250603	-2.0779456912933083e-25
-0.48610687215625603	-2.8381013431204138e-25
-0.48604583700000603	-3.585480632302758e-25
-0.48598480184375603	-4.316992676810413e-25
-0.48592376668750603	-5.029611088013551e-25
-0.48586273153125603	-5.720388750347091e-25
-0.48580169637500603	-6.386469674416294e-25
-0.48574066121875603	-7.025099219402445e-25
-0.48567962606250603	-7.633637442660679e-25
-0.48561859090625603	-8.209569759493003e-25
-0.48555755575000603	-8.75051634865854e-25
-0.48549652059375603	-9.254243566285005e-25
-0.48543548543750603	-9.718673091049163e-25
-0.48537445028125603	-1.0141889417066363e-24
-0.48531341512500603	-1.0522148135749052e-24
-0.48525237996875603	-1.0857886160056803e-24
-0.48519134481250603	-1.1147724105240823e-24
-0.48513030965625603	-1.1390473438878004e-24
-0.48506927450000603	-1.1585144535044415e-24
-0.48500823934375603	-1.1730945923477743e-24
-0.48494720418750603	-1.1827291149316512e-24
-0.48488616903125603	-1.1873800669533167e-24
-0.48482513387500603	-1.1870302091173663e-24
-0.48476409871875603	-1.1816832747329472e-24
-0.48470306356250603	-1.1713638445653601e-24
-0.48464202840625603	-1.1561173049788622e-24
-0.48458099325000603	-1.1360096353032599e-24
-0.48451995809375603	-1.1111271657732282e-24
-0.48445892293750603	-1.0815762052908317e-24
-0.48439788778125603	-1.0474826005501424e-24
-0.48433685262500603	-1.0089912633898663e-24
-0.48427581746875603	-9.662654568493276e-25
-0.48421478231250603	-9.194862854979841e-25
-0.48415374715625603	-8.688518047569034e-25
-0.48409271200000603	-8.14576214932726e-25
-0.48403167684375603	-7.56889106245959e-25
-0.48397064168750603	-6.960342980206585e-25
-0.48390960653125603	-6.322689660783091e-25
-0.48384857137500603	-5.658625325637878e-25
-0.48378753621875603	-4.970955878051036e-25
-0.48372650106250603	-4.2625853692409075e-25
-0.48366546590625603	-3.5365067085296807e-25
-0.48360443075000603	-2.7957874807036726e-25
-0.48354339559375603	-2.043555656840823e-25
-0.48348236043750603	-1.2829911063502144e-25
-0.48342132528125603	-5.17306382654395e-26
-0.48336029012500603	2.5026180777271735e-26
-0.48329925496875603	1.0164679855804184e-25
-0.48323821981250603	1.778073793078851e-25
-0.48317718465625603	2.531856531190643e-25
-0.48311614950000603	3.2746272584407512e-25
-0.48305511434375603	4.003242478310732e-25
-0.48299407918750603	4.714616290685261e-25
-0.48293304403125603	5.405734845168576e-25
-0.48287200887500603	6.073669904668898e-25
-0.48281097371875603	6.715587531305044e-25
-0.48274993856250603	7.328762910567247e-25
-0.48268890340625603	7.910593567692944e-25
-0.48262786825000603	8.458604641029951e-25
-0.48256683309375603	8.970464336304792e-25
-0.48250579793750603	9.44399284248941e-25
-0.48244476278125603	9.877169424385897e-25
-0.48238372762500603	1.0268143118272933e-24
-0.48232269246875603	1.0615240030263316e-24
-0.48226165731250603	1.0916970102615868e-24
-0.48220062215625603	1.117203344619948e-24
-0.48213958700000603	1.137932655723469e-24
-0.48207855184375603	1.153794614320633e-24
-0.48201751668750603	1.1647194058359229e-24
-0.48195648153125603	1.1706579402155026e-24
-0.48189544637500603	1.1715820760090906e-24
-0.48183441121875603	1.1674848648257802e-24
-0.48177337606250603	1.1583804367185357e-24
-0.48171234090625603	1.1443040354425588e-24
-0.48165130575000603	1.125311875721982e-24
-0.48159027059375603	1.1014809497810844e-24
-0.48152923543750603	1.072908572482825e-24
-0.48146820028125603	1.0397121970480717e-24
-0.48140716512500603	1.0020288160875948e-24
-0.48134612996875603	9.600142342302274e-25
-0.48128509481250603	9.138429098395413e-25
-0.48122405965625603	8.637065941991145e-25
-0.48116302450000603	8.098139912464639e-25
-0.48110198934375603	7.523899273891295e-25
-0.48104095418750603	6.91673862377823e-25
-0.48097991903125603	6.279195860363094e-25
-0.48091888387500603	5.613938012707841e-25
-0.48085784871875603	4.923748911343817e-25
-0.48079681356250603	4.211520883518177e-25
-0.48073577840625603	3.480240694477049e-25
-0.48067474325000603	2.732975734003908e-25
-0.48061370809375603	1.9728656117077024e-25
-0.48055267293750603	1.2031040222436787e-25
-0.48049163778125603	4.26926271136282e-26
-0.48043060262500603	-3.5239874439208e-26
-0.48036956746875603	-1.131590499600847e-25
-0.48030853231250603	-1.9073668627627594e-25
-0.48024749715625603	-2.6764545672952763e-25
-0.48018646200000603	-3.435608884775119e-25
-0.48012542684375603	-4.181624680450895e-25
-0.48006439168750603	-4.911348528869459e-25
-0.48000335653125603	-5.621693762291892e-25
-0.47994232137500603	-6.309653476602675e-25
-0.47988128621875603	-6.972313417821735e-25
-0.47982025106250603	-7.606861581612849e-25
-0.47975921590625603	-8.210604628126256e-25
-0.47969818075000603	-8.780975922989638e-25
-0.47963714559375603	-9.315546303374502e-25
-0.47957611043750603	-9.812037981795643e-25
-0.47951507528125603	-1.0268329198221212e-24
-0.47945404012500603	-1.0682467211143153e-24
-0.47939300496875603	-1.105267487525255e-24
-0.47933196981250603	-1.1377358195321059e-24
-0.47927093465625603	-1.1655113858035366e-24
-0.47920989950000603	-1.188473437366916e-24
-0.47914886434375603	-1.2065214786413558e-24
-0.47908782918750603	-1.2195754533883167e-24
-0.47902679403125603	-1.2275763485954782e-24
-0.47896575887500603	-1.2304863624814314e-24
-0.47890472371875603	-1.2282889457052368e-24
-0.47884368856250603	-1.2209891286439804e-24
-0.47878265340625603	-1.2086133219205326e-24
-0.47872161825000603	-1.1912092815400042e-24
-0.47866058309375603	-1.168845946389038e-24
-0.47859954793750603	-1.141613111441461e-24
-0.47853851278125603	-1.1096211139824865e-24
-0.47847747762500603	-1.0730003291850268e-24
-0.47841644246875603	-1.0319006572126276e-24
-0.47835540731250603	-9.864909310620784e-25
-0.47829437215625603	-9.369581858592021e-25
-0.47823333700000603	-8.83506845340976e-25
-0.47817230184375603	-8.263579595759672e-25
-0.47811126668750603	-7.657482392842138e-25
-0.47805023153125603	-7.01929037204873e-25
-0.47798919637500603	-6.35165341132437e-25
-0.47792816121875603	-5.657346358006169e-25
-0.47786712606250603	-4.93925817822983e-25
-0.47780609090625603	-4.200378489189261e-25
-0.47774505575000603	-3.4437860173273275e-25
-0.47768402059375603	-2.6726365109249005e-25
-0.47762298543750603	-1.8901460315243097e-25
-0.47756195028125603	-1.0995824611253533e-25
-0.47750091512500603	-3.0424850032536694e-26
-0.47743987996875603	4.9253434401333845e-26
-0.47737884481250603	1.287431913766442e-25
-0.47731780965625603	2.0771199024056964e-25
-0.47725677450000603	2.8582959293994674e-25
-0.47719573934375603	3.627686962817708e-25
-0.47713470418750603	4.382072253037395e-25
-0.47707366903125603	5.118292200758606e-25
-0.47701263387500603	5.833260527431296e-25
-0.47695159871875603	6.523981455386168e-25
-0.47689056356250603	7.187558228493218e-25
-0.47682952840625603	7.821208257366651e-25
-0.47676849325000603	8.422273584242207e-25
-0.47670745809375603	8.98823217195838e-25
-0.47664642293750603	9.516709298355597e-25
-0.47658538778125603	1.0005486807365067e-24
-0.47652435262500603	1.0452513058781833e-24
-0.47646331746875603	1.0855911686718196e-24
-0.47640228231250603	1.121398928757391e-24
-0.47634124715625603	1.1525242524778288e-24
-0.47628021200000603	1.1788365811558198e-24
-0.47621917684375603	1.2002254578356896e-24
-0.47615814168750603	1.2166012348243077e-24
-0.47609710653125603	1.2278953718879468e-24
-0.47603607137500603	1.2340606200722554e-24
-0.47597503621875603	1.2350714713144954e-24
-0.47591400106250603	1.230924082978185e-24
-0.47585296590625603	1.2216363243647338e-24
-0.47579193075000603	1.2072478218034746e-24
-0.47573089559375603	1.1878196966043286e-24
-0.47566986043750603	1.1634343339354037e-24
-0.47560882528125603	1.1341950643791639e-24
-0.47554779012500603	1.1002257573474186e-24
-0.47548675496875603	1.0616702594220854e-24
-0.47542571981250603	1.0186917368576347e-24
-0.47536468465625603	9.714722363083093e-25
-0.47530364950000603	9.202116479886755e-25
-0.47524261434375603	8.65126877023155e-25
-0.47518157918750603	8.064512718956997e-25
-0.47512054403125603	7.444332383163455e-25
-0.47505950887500603	6.7933531223962005e-25
-0.47499847371875603	6.1143327471871125e-25
-0.47493743856250603	5.410147204756215e-25
-0.47487640340625603	4.683778792525872e-25
-0.47481536825000603	3.938305152941736e-25
-0.47475433309375603	3.176885095738488e-25
-0.47469329793750603	2.402745535612969e-25
-0.47463226278125603	1.6191671820931016e-25
-0.47457122762500603	8.294717591421438e-26
-0.47451019246875603	3.700836902449325e-27
-0.47444915731250603	-7.548642515733966e-26
-0.47438812215625603	-1.5427860938810044e-25
-0.47432708700000603	-2.323415001124431e-25
-0.47426605184375603	-3.093440497933775e-25
-0.47420501668750603	-3.84959260903323e-25
-0.47414398153125603	-4.588664070784602e-25
-0.47408294637500603	-5.307517355954873e-25
-0.47402191121875603	-6.003098461585621e-25
-0.47396087606250603	-6.672456174324717e-25
-0.47389984090625603	-7.312746076219497e-25
-0.47383880575000603	-7.921247141655614e-25
-0.47377777059375603	-8.495376313072215e-25
-0.47371673543750603	-9.0326914061671e-25
-0.47365570028125603	-9.530908440218169e-25
-0.47359466512500603	-9.987910558331844e-25
-0.47353362996875603	-1.0401752916878614e-24
-0.47347259481250603	-1.0770675056502847e-24
-0.47341155965625603	-1.1093107741497086e-24
-0.47335052450000603	-1.136767848770036e-24
-0.47328948934375603	-1.1593217872968937e-24
-0.47322845418750603	-1.1768765694351909e-24
-0.47316741903125603	-1.1893573390231251e-24
-0.47310638387500603	-1.1967108951003911e-24
-0.47304534871875603	-1.198905835065195e-24
-0.47298431356250603	-1.195932651892661e-24
-0.47292327840625603	-1.1878039639990255e-24
-0.47286224325000603	-1.1745542682287098e-24
-0.47280120809375603	-1.1562398905195938e-24
-0.47274017293750603	-1.1329388228319573e-24
-0.47267913778125603	-1.1047502649048918e-24
-0.47261810262500603	-1.071794283579688e-24
-0.47255706746875603	-1.0342113784023348e-24
-0.47249603231250603	-9.92161711891427e-25
-0.47243499715625603	-9.458246176208301e-25
-0.47237396200000603	-8.953978047399034e-25
-0.47231292684375603	-8.410963586733635e-25
