Time	Frequency
-0.5000197890937486	1.0568357136511218e-25
-0.49995875393749856	1.8875452700101683e-25
-0.49989771878124856	2.712877983229667e-25
-0.49983668362499856	3.530193626364038e-25
-0.49977564846874856	4.336879478752691e-25
-0.49971461331249856	5.1303518720318255e-25
-0.49965357815624856	5.908069057054215e-25
-0.49959254299999856	6.667538764177557e-25
-0.49953150784374856	7.406321939228473e-25
-0.49947047268749856	8.122048007646518e-25
-0.49940943753124856	8.812414611265063e-25
-0.49934840237499856	9.475198817574244e-25
-0.49928736721874856	1.0108267213696916e-24
-0.49922633206249856	1.0709574024635852e-24
-0.49916529690624856	1.1277176665050763e-24
-0.49910426174999856	1.180923824564151e-24
-0.49904322659374856	1.230402977115673e-24
-0.49898219143749856	1.2759943877009678e-24
-0.49892115628124856	1.3175492604233855e-24
-0.49886012112499856	1.3549314956009059e-24
-0.49879908596874856	1.388018334887375e-24
-0.49873805081249856	1.4167003161630026e-24
-0.49867701565624856	1.4408820006783224e-24
-0.49861598049999856	1.4604821466329872e-24
-0.49855494534374856	1.4754339014338484e-24
-0.49849391018749856	1.4856851733932692e-24
-0.49843287503124856	1.491198700739744e-24
-0.49837183987499856	1.491952187277573e-24
-0.49831080471874856	1.487938448634404e-24
-0.49824976956249856	1.4791653664163184e-24
-0.49818873440624856	1.4656559033140101e-24
-0.49812769924999856	1.4474480737734328e-24
-0.49806666409374856	1.4245947629664365e-24
-0.49800562893749856	1.3971636363103252e-24
-0.49794459378124856	1.3652368879271515e-24
-0.49788355862499856	1.3289110222756835e-24
-0.49782252346874856	1.2882965307543531e-24
-0.49776148831249856	1.2435175598579223e-24
-0.49770045315624856	1.1947115681767432e-24
-0.49763941799999856	1.1420287893852087e-24
-0.49757838284374856	1.0856319098354681e-24
-0.49751734768749856	1.0256954731451121e-24
-0.49745631253124856	9.62405289224345e-25
-0.49739527737499856	8.959580127791668e-25
-0.49733424221874856	8.265603968904528e-25
-0.49727320706249856	7.544285763832099e-25
-0.49721217190624856	6.797876828094079e-25
-0.49715113674999856	6.028708030839112e-25
-0.49709010159374856	5.23918355234748e-25
-0.49702906643749856	4.431776383478946e-25
-0.49696803128124856	3.6090137154697826e-25
-0.49690699612499856	2.7734763725591417e-25
-0.49684596096874856	1.9277870612077047e-25
-0.49678492581249856	1.0745991549492702e-25
-0.49672389065624856	2.165967340147977e-26
-0.49666285549999856	-6.435227650594556e-26
-0.49660182034374856	-1.5030533351363052e-25
-0.49654078518749856	-2.359286001458253e-25
-0.49647975003124856	-3.2095231708622978e-25
-0.49641871487499856	-4.051084406182915e-25
-0.49635767971874856	-4.881312655164035e-25
-0.49629664456249856	-5.697586663330286e-25
-0.49623560940624856	-6.497327766216725e-25
-0.49617457424999856	-7.278006606859283e-25
-0.49611353909374856	-8.037153476220666e-25
-0.49605250393749856	-8.772364082459909e-25
-0.49599146878124856	-9.481309762968524e-25
-0.49593043362499856	-1.0161742015344637e-24
-0.49586939846874856	-1.0811501399568315e-24
-0.49580836331249856	-1.1428524733465734e-24
-0.49574732815624856	-1.2010849580933081e-24
-0.49568629299999856	-1.2556623789588915e-24
-0.49562525784374856	-1.3064107949200016e-24
-0.49556422268749856	-1.3531683231217699e-24
-0.49550318753124856	-1.3957856537636514e-24
-0.49544215237499856	-1.434126347450252e-24
-0.49538111721874856	-1.4680674951071449e-24
-0.49532008206249856	-1.4974999824747519e-24
-0.49525904690624856	-1.5223288986427701e-24
-0.49519801174999856	-1.5424737757345171e-24
-0.49513697659374856	-1.557868936055716e-24
-0.49507594143749856	-1.5684637081504153e-24
-0.49501490628124856	-1.5742224510906273e-24
-0.49495387112499856	-1.5751249113146103e-24
-0.49489283596874856	-1.5711660779986843e-24
-0.49483180081249856	-1.5623563106396536e-24
-0.49477076565624856	-1.548721347387952e-24
-0.49470973049999856	-1.5303021030713176e-24
-0.49464869534374856	-1.5071547128808928e-24
-0.49458766018749856	-1.4793501921302276e-24
-0.49452662503124856	-1.4469743699791e-24
-0.49446558987499856	-1.410127528378009e-24
-0.49440455471874856	-1.368924099172166e-24
-0.49434351956249856	-1.3234923615883314e-24
-0.49428248440624856	-1.273973998187025e-24
-0.49422144924999856	-1.2205236594752766e-24
-0.49416041409374856	-1.1633084372604978e-24
-0.49409937893749856	-1.102507505669434e-24
-0.49403834378124856	-1.0383113108149391e-24
-0.49397730862499856	-9.709211116028233e-25
-0.49391627346874856	-9.005484447965535e-25
-0.49385523831249856	-8.274142269119401e-25
-0.49379420315624856	-7.517481599080146e-25
-0.49373316799999856	-6.737881692046578e-25
-0.49367213284374856	-5.937793883553187e-25
-0.49361109768749856	-5.119734071289907e-25
-0.49355006253124856	-4.286278412660081e-25
-0.49348902737499856	-3.440050318029363e-25
-0.49342799221874856	-2.583713340799405e-25
-0.49336695706249856	-1.7199675957925292e-25
-0.49330592190624856	-8.515325300683319e-26
-0.49324488674999856	1.8854900878555516e-27
-0.49318385159374856	8.884486131862162e-26
-0.49312281643749856	1.7545101782513486e-25
-0.49306178128124856	2.614306708730624e-25
-0.49300074612499856	3.4651263956194075e-25
-0.49293971096874856	4.3042871776175835e-25
-0.49287867581249856	5.129141335604657e-25
-0.49281764065624856	5.937087190499319e-25
-0.49275660549999856	6.7255761519689865e-25
-0.49269557034374856	7.492121356639598e-25
-0.49263453518749856	8.2343048563169045e-25
-0.49257350003124856	8.949786370128398e-25
-0.49251246487499856	9.636309793005028e-25
-0.49245142971874856	1.029171089639162e-24
-0.49239039456249856	1.0913924465614307e-24
-0.49232935940624856	1.1500990149555298e-24
-0.49226832424999856	1.2051059357054663e-24
-0.49220728909374856	1.2562401892294359e-24
-0.49214625393749856	1.3033408913751723e-24
-0.49208521878124856	1.3462601602487607e-24
-0.49202418362499856	1.3848633503849688e-24
-0.49196314846874856	1.4190294609931936e-24
-0.49190211331249856	1.4486518143656956e-24
-0.49184107815624856	1.4736380220977799e-24
-0.49178004299999856	1.493910579045938e-24
-0.49171900784374856	1.509406953240627e-24
-0.49165797268749856	1.5200798577342974e-24
-0.49159693753124856	1.5258974004451547e-24
-0.49153590237499856	1.526843148466831e-24
-0.49147486721874856	1.5229162718981473e-24
-0.49141383206249856	1.5141314329701456e-24
-0.49135279690624856	1.5005188693959576e-24
-0.49129176174999856	1.4821242078247661e-24
-0.49123072659374856	1.4590083699937417e-24
-0.49116969143749856	1.4312473648224169e-24
-0.49110865628124856	1.398932078312312e-24
-0.49104762112499856	1.362167941096296e-24
-0.49098658596874856	1.3210746274236122e-24
-0.49092555081249856	1.2757857246455721e-24
-0.49086451565624856	1.2264481287880054e-24
-0.49080348049999856	1.1732218903216675e-24
-0.49074244534374856	1.1162793750113085e-24
-0.49068141018749856	1.0558048693022529e-24
-0.49062037503124856	9.919942087802465e-25
-0.49055933987499856	9.250535903019492e-25
-0.49049830471874856	8.551995401190047e-25
-0.49043726956249856	7.826578876260999e-25
-0.49037623440624856	7.0766298785163925e-25
-0.49031519924999856	6.304572491113342e-25
-0.49025416409374856	5.512900727597278e-25
-0.49019312893749856	4.704173589642608e-25
-0.49013209378124856	3.8810023580081974e-25
-0.49007105862499856	3.0460476248013923e-25
-0.49001002346874856	2.202008624847117e-25
-0.48994898831249856	1.3516098962466606e-25
-0.48988795315624856	4.976021298780368e-26
-0.48982691799999856	-3.5725404870904614e-26
-0.48976588284374856	-1.2101973067906877e-25
-0.48970484768749856	-2.0584672883892708e-25
-0.48964381253124856	-2.8993215023139637e-25
-0.48958277737499856	-3.7300407411923023e-25
-0.48952174221874856	-4.547934897336329e-25
-0.48946070706249856	-5.35035814989092e-25
-0.48939967190624856	-6.134712285694813e-25
-0.48933863674999856	-6.898455483631495e-25
-0.48927760159374856	-7.639114869748867e-25
-0.48921656643749856	-8.35428764299514e-25
-0.48915553128124856	-9.04165432349042e-25
-0.48909449612499856	-9.69898635657469e-25
-0.48903346096874856	-1.032414582614087e-24
-0.48897242581249856	-1.0915104048342896e-24
-0.48891139065624856	-1.1469938960496392e-24
-0.48885035549999856	-1.1986842089355204e-24
-0.48878932034374856	-1.246413298265101e-24
-0.48872828518749856	-1.2900252107517997e-24
-0.48866725003124856	-1.3293774596200032e-24
-0.48860621487499856	-1.364341457640703e-24
-0.48854517971874856	-1.3948023214570134e-24
-0.48848414456249856	-1.4206599093688579e-24
-0.48842310940624856	-1.4418289400751195e-24
-0.48836207424999856	-1.4582389951067505e-24
-0.48830103909374856	-1.469835163223048e-24
-0.48824000393749856	-1.4765780853285076e-24
-0.48817896878124856	-1.4784438358164318e-24
-0.48811793362499856	-1.4754244161854446e-24
-0.48805689846874856	-1.4675275686414198e-24
-0.48799586331249856	-1.454776664883864e-24
-0.48793482815624856	-1.4372108865494202e-24
-0.48787379299999856	-1.4148849475654326e-24
-0.48781275784374856	-1.3878688921841891e-24
-0.48775172268749856	-1.356248031651214e-24
-0.48769068753124856	-1.3201225492509104e-24
-0.48762965237499856	-1.279607199460894e-24
-0.48756861721874856	-1.234831037198926e-24
-0.48750758206249856	-1.1859368709226413e-24
-0.48744654690624856	-1.1330809439722008e-24
-0.48738551174999856	-1.0764323618363114e-24
-0.48732447659374856	-1.0161725366705046e-24
-0.48726344143749856	-9.524947003325758e-25
-0.48720240628124856	-8.85603205383009e-25
-0.48714137112499856	-8.157129113512324e-25
-0.48708033596874856	-7.430484304604384e-25
-0.48701930081249856	-6.678436030767031e-25
-0.48695826565624856	-5.903404726721018e-25
-0.48689723049999856	-5.107886941121127e-25
-0.48683619534374856	-4.294448208142557e-25
-0.48677516018749856	-3.46571054023844e-25
-0.48671412503124856	-2.624350578050929e-25
-0.48665308987499856	-1.773085370984016e-25
-0.48659205471874856	-9.146650415006068e-26
-0.48653101956249856	-5.186692613900044e-27
-0.48646998440624856	8.12517617130195e-26
-0.48640894924999856	1.675689134009702e-25
-0.48634791409374856	2.5348517764046516e-25
-0.48628687893749856	3.3872184256999063e-25
-0.48622584378124856	4.23002303482473e-25
-0.48616480862499856	5.060530659553919e-25
-0.48610377346874856	5.876040287104916e-25
-0.48604273831249856	6.673899235194848e-25
-0.48598170315624856	7.451511885471191e-25
-0.48592066799999856	8.20634310591656e-25
-0.48585963284374856	8.935930077522007e-25
-0.48579859768749856	9.637891429271498e-25
-0.48573756253124856	1.030993175318417e-24
-0.48567652737499856	1.0949850352303652e-24
-0.48561549221874856	1.1555549449703812e-24
-0.48555445706249856	1.2125039933083413e-24
-0.48549342190624856	1.2656447157858589e-24
-0.48543238674999856	1.3148019137688732e-24
-0.48537135159374856	1.3598130445346279e-24
-0.48531031643749856	1.4005287936394215e-24
-0.48524928128124856	1.436813676891009e-24
-0.48518824612499856	1.468546261119628e-24
-0.48512721096874856	1.4956198054712632e-24
-0.48506617581249856	1.5179425305937155e-24
-0.48500514065624856	1.5354377528828575e-24
-0.48494410549999856	1.5480444170604283e-24
-0.48488307034374856	1.5557171975533354e-24
-0.48482203518749856	1.5584264976447581e-24
-0.48476100003124856	1.556158803983678e-24
-0.48469996487499856	1.5489166224527733e-24
-0.48463892971874856	1.5367183983367059e-24
-0.48457789456249856	1.519598643303618e-24
-0.48451685940624856	1.4976077127497042e-24
-0.48445582424999856	1.470811646768453e-24
-0.48439478909374856	1.439292077953655e-24
-0.48433375393749856	1.4031458412694063e-24
-0.48427271878124856	1.3624847354529998e-24
-0.48421168362499856	1.3174352544915627e-24
-0.48415064846874856	1.268137991135161e-24
-0.48408961331249856	1.214747326286244e-24
-0.48402857815624856	1.1574310528489365e-24
-0.48396754299999856	1.0963695195263252e-24
-0.48390650784374856	1.0317553088175396e-24
-0.48384547268749856	9.637927473656773e-25
-0.48378443753124856	8.92696683003645e-25
-0.48372340237499856	8.18692510815308e-25
-0.48366236721874856	7.420151516988505e-25
-0.48360133206249856	6.629078538405235e-25
-0.48354029690624856	5.816223238018886e-25
-0.48347926174999856	4.984172150938449e-25
-0.48341822659374856	4.135574082696739e-25
-0.48335719143749856	3.273134707487529e-25
-0.48329615628124856	2.3996042932997057e-25
-0.48323512112499856	1.5177709026437342e-25
-0.48317408596874856	6.304510087637917e-26
-0.48311305081249856	-2.5951993080875344e-26
-0.48305201565624856	-1.1492965024011494e-25
-0.48299098049999856	-2.0360325255536109e-25
-0.48292994534374856	-2.91688948131559e-25
-0.48286891018749856	-3.789046494675902e-25
-0.48280787503124856	-4.649710502790805e-25
-0.48274683987499856	-5.496122262808404e-25
-0.48268580471874856	-6.325567554985467e-25
-0.48262476956249856	-7.135387004758714e-25
-0.48256373440624856	-7.922981371894292e-25
-0.48250269924999856	-8.685821108775547e-25
-0.48244166409374856	-9.421458795016335e-25
-0.48238062893749856	-1.0127530330251207e-24
-0.48231959378124856	-1.0801764889773146e-24
-0.48225855862499856	-1.144199826965086e-24
-0.48219752346874856	-1.2046169587229995e-24
-0.48213648831249856	-1.2612335220554736e-24
-0.48207545315624856	-1.313867459974567e-24
-0.48201441799999856	-1.3623492491789682e-24
-0.48195338284374856	-1.4065228321783932e-24
-0.48189234768749856	-1.446245884181834e-24
-0.48183131253124856	-1.4813904784374678e-24
-0.48177027737499856	-1.5118432778499893e-24
-0.48170924221874856	-1.5375061194726934e-24
-0.48164820706249856	-1.5582962231281197e-24
-0.48158717190624856	-1.5741464748659743e-24
-0.48152613674999856	-1.58500572955464e-24
-0.48146510159374856	-1.5908388169424368e-24
-0.48140406643749856	-1.5916268986940604e-24
-0.48134303128124856	-1.587367313916289e-24
-0.48128199612499856	-1.5780737168620342e-24
-0.48122096096874856	-1.5637760350297365e-24
-0.48115992581249856	-1.544520319169809e-24
-0.48109889065624856	-1.5203686736835164e-24
-0.48103785549999856	-1.4913989737188204e-24
-0.48097682034374856	-1.4577047921309614e-24
-0.48091578518749856	-1.419394803426685e-24
-0.48085475003124856	-1.3765927678540804e-24
-0.48079371487499856	-1.3294370265771732e-24
-0.48073267971874856	-1.2780797222767234e-24
-0.48067164456249856	-1.2226870705351573e-24
-0.48061060940624856	-1.163438008926024e-24
-0.48054957424999856	-1.1005240067455901e-24
-0.48048853909374856	-1.0341487710316324e-24
-0.48042750393749856	-9.645267553869298e-25
-0.48036646878124856	-8.91883259397144e-25
-0.48030543362499856	-8.164534469088323e-25
-0.48024439846874856	-7.384813270674789e-25
-0.48018336331249856	-6.582192862852013e-25
-0.48012232815624856	-5.759272452421488e-25
-0.48006129299999856	-4.918716378023584e-25
-0.48000025784374856	-4.0632467169232647e-25
-0.47993922268749856	-3.1956351039399613e-25
-0.47987818753124856	-2.3186912933412194e-25
-0.47981715237499856	-1.4352578855153318e-25
-0.47975611721874856	-5.481969223332291e-26
-0.47969508206249856	3.396165817893993e-26
-0.47963404690624856	1.2253033314320219e-25
-0.47957301174999856	2.105993892502154e-25
-0.47951197659374856	2.978830998905173e-25
-0.47945094143749856	3.8409852405196765e-25
-0.47938990628124856	4.68966029260278e-25
-0.47932887112499856	5.522102583606062e-25
-0.47926783596874856	6.335613696272095e-25
-0.47920680081249856	7.12755206182565e-25
-0.47914576565624856	7.895350340494907e-25
-0.47908473049999856	8.636516858248155e-25
-0.47902369534374856	9.348645795507699e-25
-0.47896266018749856	1.0029428047666396e-24
-0.47890162503124856	1.0676653272823736e-24
-0.47884058987499856	1.1288222424720076e-24
-0.47877955471874856	1.1862150659866462e-24
-0.47871851956249856	1.2396576251755068e-24
-0.47865748440624856	1.288976630064644e-24
-0.47859644924999856	1.334012054848059e-24
-0.47853541409374856	1.3746179726505637e-24
-0.47847437893749856	1.410662774618487e-24
-0.47841334378124856	1.4420297615775473e-24
-0.47835230862499856	1.4686174528638415e-24
-0.47829127346874856	1.4903398813017995e-24
-0.47823023831249856	1.5071271004832519e-24
-0.47816920315624856	1.5189250953538335e-24
-0.47810816799999856	1.5256961822671007e-24
-0.47804713284374856	1.5274191704615144e-24
-0.47798609768749856	1.52408921045456e-24
-0.47792506253124856	1.515718055536828e-24
-0.47786402737499856	1.5023339242669222e-24
-0.47780299221874856	1.483981368462241e-24
-0.47774195706249856	1.4607212674754783e-24
-0.47768092190624856	1.4326304861870773e-24
-0.47761988674999856	1.3998017446657618e-24
-0.47755885159374856	1.3623432916992288e-24
-0.47749781643749856	1.3203784840497817e-24
-0.47743678128124856	1.2740455327193322e-24
-0.47737574612499856	1.2234968986954705e-24
-0.47731471096874856	1.1688989743515343e-24
-0.47725367581249856	1.1104313082453705e-24
-0.47719264065624856	1.0482863105150797e-24
-0.47713160549999856	9.826684982199944e-25
-0.47707057034374856	9.137935187975044e-25
-0.47700953518749856	8.41888262573341e-25
-0.47694850003124856	7.671891652773353e-25
-0.47688746487499856	6.899420161405003e-25
-0.47682642971874856	6.10401263515065e-25
-0.47676539456249856	5.28828533367814e-25
-0.47670435940624856	4.454926310646915e-25
-0.47664332424999856	3.6066784731641317e-25
-0.47658228909374856	2.7463369140454787e-25
-0.47652125393749856	1.8767377273393778e-25
-0.47646021878124856	1.000745374293307e-25
-0.47639918362499856	1.2124931493416904e-26
-0.47633814846874856	-7.588489913085329e-26
-0.47627711331249856	-1.6366459788709847e-25
-0.47621607815624856	-2.509245297172216e-25
-0.47615504299999856	-3.3737630201955568e-25
-0.47609400784374856	-4.227343778078533e-25
-0.47603297268749856	-5.067167514536628e-25
-0.47597193753124856	-5.890454127734716e-25
-0.47591090237499856	-6.694480613570663e-25
-0.47584986721874856	-7.476584726656066e-25
-0.47578883206249856	-8.234173966454012e-25
-0.47572779690624856	-8.964737355707344e-25
-0.47566676174999856	-9.66584907713556e-25
-0.47560572659374856	-1.033518077738445e-24
-0.47554469143749856	-1.0970506619279402e-24
-0.47548365628124856	-1.1569711611492524e-24
-0.47542262112499856	-1.2130798414723219e-24
-0.47536158596874856	-1.2651893160749577e-24
-0.47530055081249856	-1.313125434314715e-24
-0.47523951565624856	-1.3567274045231223e-24
-0.47517848049999856	-1.3958488328533198e-24
-0.47511744534374856	-1.4303578397831904e-24
-0.47505641018749856	-1.4601376332820752e-24
-0.47499537503124856	-1.4850869984361161e-24
-0.47493433987499856	-1.5051203563676303e-24
-0.47487330471874856	-1.5201684616917378e-24
-0.47481226956249856	-1.5301782343416078e-24
-0.47475123440624856	-1.5351131697715806e-24
-0.47469019924999856	-1.5349534843723741e-24
-0.47462916409374856	-1.5296960265183174e-24
-0.47456812893749856	-1.5193544637626106e-24
-0.47450709378124856	-1.5039591465401872e-24
-0.47444605862499856	-1.4835570771671104e-24
-0.47438502346874856	-1.458211686195324e-24
-0.47432398831249856	-1.428002762853468e-24
-0.47426295315624856	-1.3930260673698816e-24
-0.47420191799999856	-1.3533930762969771e-24
-0.47414088284374856	-1.3092307299752621e-24
-0.47407984768749856	-1.2606807773519594e-24
-0.47401881253124856	-1.2078996004863199e-24
-0.47395777737499856	-1.1510575747594967e-24
-0.47389674221874856	-1.0903384154913075e-24
-0.47383570706249856	-1.0259387681156222e-24
-0.47377467190624856	-9.580675637153393e-25
-0.47371363674999856	-8.86945147775247e-25
-0.47365260159374856	-8.128026764976331e-25
-0.47359156643749856	-7.358815889724405e-25
-0.47353053128124856	-6.56432355129184e-25
-0.47346949612499856	-5.7471393601469985e-25
-0.47340846096874856	-4.90993186310753e-25
-0.47334742581249856	-4.0554337584241327e-25
-0.47328639065624856	-3.1864373343751344e-25
-0.47322535549999856	-2.3057860368586313e-25
-0.47316432034374856	-1.4163610784175877e-25
-0.47310328518749856	-5.210750608756306e-26
-0.47304225003124856	3.771372215277575e-26
-0.47298121487499856	1.2753303709035882e-25
-0.47292017971874856	2.1705576702280145e-25
-0.47285914456249856	3.059878893923976e-25
-0.47279810940624856	3.9403724896172125e-25
-0.47273707424999856	4.809143004045188e-25
-0.47267603909374856	5.663332725997606e-25
-0.47261500393749856	6.500129826454743e-25
-0.47255396878124856	7.316775170843143e-25
-0.47249293362499856	8.110578755540008e-25
-0.47243189846874856	8.878920339511869e-25
-0.47237086331249856	9.619261591215669e-25
