Time	Frequency
-0.5000605585000031	-0.038771690486376534
-0.4999995233437531	-0.05749579123374566
-0.4999384881875031	-0.07606994355959308
-0.4998774530312531	-0.09444066013312233
-0.4998164178750031	-0.11255519734210681
-0.4997553827187531	-0.13036134621718518
-0.4996943475625031	-0.14780781151113084
-0.4996333124062531	-0.16484435320058022
-0.4995722772500031	-0.18142171783692798
-0.4995112420937531	-0.19749211938494857
-0.4994502069375031	-0.21300904739440443
-0.4993891717812531	-0.22792758486294964
-0.4993281366250031	-0.2422045485296431
-0.4992671014687531	-0.2557984555735681
-0.4992060663125031	-0.2686698444844827
-0.4991450311562531	-0.28078121747418816
-0.4990839960000031	-0.2920972684396871
-0.4990229608437531	-0.30258490898572543
-0.4989619256875031	-0.31221339681999816
-0.4989008905312531	-0.3209544406225761
-0.4988398553750031	-0.32878221144126046
-0.4987788202187531	-0.3356735333017943
-0.4987177850625031	-0.34160783297535136
-0.4986567499062531	-0.3465672651853198
-0.4985957147500031	-0.3505367745557071
-0.4985346795937531	-0.3535040798206076
-0.4984736444375031	-0.35545977417056973
-0.4984126092812531	-0.3563973269348376
-0.4983515741250031	-0.3563130857040033
-0.4982905389687531	-0.35520632887417536
-0.4982295038125031	-0.3530792388527302
-0.4981684686562531	-0.34993690004257355
-0.4981074335000031	-0.3457873082228377
-0.4980463983437531	-0.3406413211770716
-0.4979853631875031	-0.3345126469071471
-0.4979243280312531	-0.3274178100385521
-0.4978632928750031	-0.31937607780370786
-0.4978022577187531	-0.310409459720962
-0.4977412225625031	-0.3005425802488496
-0.4976801874062531	-0.2898026638784828
-0.4976191522500031	-0.2782194531110744
-0.4975581170937531	-0.26582506254236216
-0.4974970819375031	-0.2526540096093907
-0.4974360467812531	-0.23874298814435133
-0.4973750116250031	-0.22413084479664422
-0.4973139764687531	-0.20885845908465478
-0.4972529413125031	-0.19296860321656975
-0.4971919061562531	-0.17650583477956427
-0.4971308710000031	-0.1595163832820339
-0.4970698358437531	-0.14204802323775337
-0.4970088006875031	-0.12414986198377873
-0.4969477655312531	-0.10587235342458687
-0.4968867303750031	-0.08726699825436117
-0.4968256952187531	-0.06838626134203463
-0.4967646600625031	-0.04928350008456499
-0.4967036249062531	-0.030012645191333898
-0.4966425897500031	-0.010628191074239712
-0.4965815545937531	0.008814979694098541
-0.4965205194375031	0.02826186366978211
-0.4964594842812531	0.047657351027620996
-0.4963984491250031	0.06694642877445862
-0.4963374139687531	0.0860744100841454
-0.4962763788125031	0.10498700259729025
-0.4962153436562531	0.12363045428142577
-0.4961543085000031	0.14195181145361263
-0.4960932733437531	0.15989897058820696
-0.4960322381875031	0.17742083111049106
-0.4959712030312531	0.19446753813428752
-0.4959101678750031	0.21099049677649873
-0.4958491327187531	0.2269426023250661
-0.4957880975625031	0.24227833650099634
-0.4957270624062531	0.25695390855182165
-0.4956660272500031	0.27092737551466384
-0.4956049920937531	0.28415877623883823
-0.4955439569375031	0.29661022342673504
-0.4954829217812531	0.3082460300207983
-0.4954218866250031	0.3190328272424335
-0.4953608514687531	0.32893959460628736
-0.4952998163125031	0.33793785756979405
-0.4952387811562531	0.34600165552914025
-0.4951777460000031	0.35310770958255283
-0.4951167108437531	0.3592354246670559
-0.4950556756875031	0.3643669878862898
-0.4949946405312531	0.3684874289230869
-0.4949336053750031	0.3715845851785545
-0.4948725702187531	0.3736492821535756
-0.4948115350625031	0.37467520610603217
-0.4947504999062531	0.37465901788081246
-0.4946894647500031	0.3736003635612245
-0.4946284295937531	0.37150180821635287
-0.4945673944375031	0.3683689130167388
-0.4945063592812531	0.36421016737986256
-0.4944453241250031	0.3590369792624076
-0.4943842889687531	0.35286365706293293
-0.4943232538125031	0.345707350193877
-0.4942622186562531	0.3375880177189454
-0.4942011835000031	0.3285283623207678
-0.4941401483437531	0.3185537701256353
-0.4940791131875031	0.307692250179598
-0.4940180780312531	0.2959743283918995
-0.4939570428750031	0.2834329897464377
-0.4938960077187531	0.2701035790574968
-0.4938349725625031	0.25602367879731214
-0.4937739374062531	0.241233036758253
-0.4937129022500031	0.2257734374713949
-0.4936518670937531	0.2096885695728671
-0.4935908319375031	0.19302391860599216
-0.4935297967812531	0.17582665135291242
-0.4934687616250031	0.15814544567899344
-0.4934077264687531	0.14003037713821234
-0.4933466913125031	0.12153278344291077
-0.4932856561562531	0.10270507551284262
-0.4932246210000031	0.08360066558902321
-0.4931635858437531	0.06427370889706295
-0.4931025506875031	0.04477905810652023
-0.4930415155312531	0.02517204542421014
-0.4929804803750031	0.005508283941493863
-0.4929194452187531	-0.014156337357675804
-0.4928584100625031	-0.03376601537792721
-0.4927973749062531	-0.05326505264704415
-0.4927363397500031	-0.07259803035461798
-0.4926753045937531	-0.09171004879554506
-0.4926142694375031	-0.11054679035630592
-0.4925532342812531	-0.12905472703259444
-0.4924921991250031	-0.14718126553600439
-0.4924311639687531	-0.16487488206423392
-0.4923701288125031	-0.1820853025142941
-0.4923090936562531	-0.19876360381350022
-0.4922480585000031	-0.2148623984768056
-0.4921870233437531	-0.2303359371417277
-0.4921259881875031	-0.24514025995869365
-0.4920649530312531	-0.25923332630159657
-0.4920039178750031	-0.2725750829501268
-0.4919428827187531	-0.2851277037661578
-0.4918818475625031	-0.29685553217146443
-0.4918208124062531	-0.30772531677312537
-0.4917597772500031	-0.31770627819192093
-0.4916987420937531	-0.3267701212236871
-0.4916377069375031	-0.33489124094555917
-0.4915766717812531	-0.3420466908044115
-0.4915156366250031	-0.348216320352471
-0.4914546014687531	-0.3533827777178812
-0.4913935663125031	-0.35753160778012555
-0.4913325311562531	-0.3606512856982326
-0.4912714960000031	-0.3627331982285367
-0.4912104608437531	-0.3637717645127269
-0.4911494256875031	-0.3637643683572832
-0.4910883905312531	-0.3627113957466811
-0.4910273553750031	-0.3606162674080321
-0.4909663202187531	-0.35748537048568196
-0.4909052850625031	-0.3533280853242817
-0.4908442499062531	-0.34815674918094
-0.4907832147500031	-0.3419866073187953
-0.4907221795937531	-0.33483578930058866
-0.4906611444375031	-0.326725249870678
-0.4906001092812531	-0.31767870202835546
-0.4905390741250031	-0.30772256931136405
-0.4904780389687531	-0.2968858869976383
-0.4904170038125031	-0.2852002361375304
-0.4903559686562531	-0.2726996553015937
-0.4902949335000031	-0.2594205085143578
-0.4902338983437531	-0.24540146572409413
-0.4901728631875031	-0.2306832690896394
-0.4901118280312531	-0.21530871951874547
-0.4900507928750031	-0.19932254552903933
-0.4899897577187531	-0.18277116127353502
-0.4899287225625031	-0.16570271305017023
-0.4898676874062531	-0.14816679752019063
-0.4898066522500031	-0.13021437196896987
-0.4897456170937531	-0.11189761946057748
-0.4896845819375031	-0.09326976811082777
-0.4896235467812531	-0.0743849817160336
-0.4895625116250031	-0.05529812922830902
-0.4895014764687531	-0.03606472054907138
-0.4894404413125031	-0.016740686943588094
-0.4893794061562531	0.002617803271307573
-0.4893183710000031	0.021954399041739882
-0.4892573358437531	0.0412128705965011
-0.4891963006875031	0.06033719624560783
-0.4891352655312531	0.07927164418880532
-0.4890742303750031	0.09796113876222536
-0.4890131952187531	0.11635125230653215
-0.4889521600625031	0.13438836319257885
-0.4888911249062531	0.15201993481025547
-0.4888300897500031	0.16919456034575786
-0.4887690545937531	0.18586212516190964
-0.4887080194375031	0.20197400662261486
-0.4886469842812531	0.21748316105950963
-0.4885859491250031	0.23234426688373966
-0.4885249139687531	0.24651389763471504
-0.4884638788125031	0.2599506031879388
-0.4884028436562531	0.27261504344577575
-0.4883418085000031	0.28447011022562096
-0.4882807733437531	0.29548104127851077
-0.4882197381875031	0.30561549197155724
-0.4881587030312531	0.3148436674125739
-0.4880976678750031	0.3231384062110456
-0.4880366327187531	0.33047519798845093
-0.4879755975625031	0.3368323557275935
-0.4879145624062531	0.3421910177418289
-0.4878535272500031	0.346535182091783
-0.4877924920937531	0.3498518370649474
-0.4877314569375031	0.35213091067223073
-0.4876704217812531	0.35336535732298396
-0.4876093866250031	0.35355117159181026
-0.4875483514687531	0.35268737000506817
-0.4874873163125031	0.35077604269952856
-0.4874262811562531	0.34782231085655096
-0.4873652460000031	0.3438343296477581
-0.4873042108437531	0.3388232677061107
-0.4872431756875031	0.3328032698304992
-0.4871821405312531	0.3257914192883935
-0.4871211053750031	0.3178076934071954
-0.4870600702187531	0.3088749039348565
-0.4869990350625031	0.29901863682038776
-0.4869379999062531	0.28826715752144166
-0.4868769647500031	0.2766513859445958
-0.4868159295937531	0.26420473324447047
-0.4867548944375031	0.25096305120280205
-0.4866938592812531	0.2369645691669579
-0.4866328241250031	0.22224964705505995
-0.4865717889687531	0.20686084322498394
-0.4865107538125031	0.19084265611318219
-0.4864497186562531	0.1742414144204829
-0.4863886835000031	0.15710523976878685
-0.4863276483437531	0.13948376242945829
-0.4862666131875031	0.12142810180656427
-0.4862055780312531	0.10299065916800267
-0.4861445428750031	0.08422495822941477
-0.4860835077187531	0.06518554251400159
-0.4860224725625031	0.04592775201379705
-0.4859614374062531	0.026507629217071553
-0.4859004022500031	0.0069816974198244775
-0.4858393670937531	-0.012593172069647699
-0.4857783319375031	-0.032159908208463005
-0.4857172967812531	-0.05166146480116139
-0.4856562616250031	-0.07104089744240719
-0.4855952264687531	-0.09024164027838424
-0.4855341913125031	-0.10920755392258952
-0.4854731561562531	-0.12788317071794172
-0.4854121210000031	-0.14621384438640087
-0.4853510858437531	-0.16414583744793604
-0.4852900506875031	-0.18162662933166032
-0.4852290155312531	-0.19860487484658157
-0.4851679803750031	-0.21503070465743998
-0.4851069452187531	-0.2308558499289032
-0.4850459100625031	-0.24603367096423095
-0.4849848749062531	-0.26051945031225604
-0.4849238397500031	-0.27427043530053197
-0.4848628045937531	-0.28724593711716373
-0.4848017694375031	-0.2994075485079975
-0.4847407342812531	-0.31071915959006224
-0.4846796991250031	-0.3211471145306362
-0.4846186639687531	-0.33066031761800857
-0.4845576288125031	-0.33923027536756667
-0.4844965936562531	-0.34683124590643777
-0.4844355585000031	-0.35344025547458296
-0.4843745233437531	-0.35903722151678824
-0.4843134881875031	-0.3636049607050742
-0.4842524530312531	-0.36712927528578676
-0.4841914178750031	-0.36959900114982736
-0.4841303827187531	-0.37100599645076426
-0.4840693475625031	-0.37134522805157555
-0.4840083124062531	-0.3706147427974679
-0.4839472772500031	-0.36881569080063276
-0.4838862420937531	-0.36595233093148033
-0.4838252069375031	-0.36203200653498707
-0.4837641717812531	-0.35706513702324233
-0.4837031366250031	-0.3510651813286925
-0.4836421014687531	-0.34404860917108426
-0.4835810663125031	-0.33603484881017126
-0.4835200311562531	-0.3270462302045488
-0.4834589960000031	-0.3171079336243931
-0.4833979608437531	-0.30624790367386956
-0.4833369256875031	-0.2944967789229483
-0.4832758905312531	-0.28188780425987126
-0.4832148553750031	-0.26845673770688644
-0.4831538202187531	-0.2542417209238865
-0.4830927850625031	-0.23928323476979615
-0.4830317499062531	-0.2236239015767631
-0.4829707147500031	-0.20730841386831275
-0.4829096795937531	-0.19038343363448007
-0.4828486444375031	-0.17289733518514322
-0.4827876092812531	-0.15490022766620465
-0.4827265741250031	-0.13644370992517613
-0.4826655389687531	-0.11758070878758609
-0.4826045038125031	-0.09836539934852806
-0.4825434686562531	-0.07885302120352648
-0.4824824335000031	-0.05909964259514199
-0.4824213983437531	-0.039162115436192815
-0.4823603631875031	-0.019097878070260938
-0.4822993280312531	0.0010353263891930723
-0.4822382928750031	0.021179419096115044
-0.4821772577187531	0.04127630466255801
-0.4821162225625031	0.06126801852515973
-0.4820551874062531	0.0810968323103385
-0.4819941522500031	0.10070546688217503
-0.4819331170937531	0.1200372654615765
-0.4818720819375031	0.1390363564810107
-0.4818110467812531	0.15764775937494152
-0.4817500116250031	0.17581764981591064
-0.4816889764687531	0.19349345116250125
-0.4816279413125031	0.21062391051987062
-0.4815669061562531	0.2271594658557063
-0.4815058710000031	0.2430522000131638
-0.4814448358437531	0.2582559590775868
-0.4813838006875031	0.2727267437423206
-0.4813227655312531	0.2864225039552713
-0.4812617303750031	0.2993034835651418
-0.4812006952187531	0.3113323281431566
-0.4811396600625031	0.3224740170007265
-0.4810786249062531	0.3326962310706489
-0.4810175897500031	0.34196920711322804
-0.4809565545937531	0.35026596196476556
-0.4808955194375031	0.35756237262386925
-0.4808344842812531	0.36383714000227874
-0.4807734491250031	0.36907199798508317
-0.4807124139687531	0.37325165098438157
-0.4806513788125031	0.37636388083666056
-0.4805903436562531	0.3783995722150881
-0.4805293085000031	0.37935271967552725
-0.4804682733437531	0.37922048416445653
-0.4804072381875031	0.37800316750610957
-0.4803462030312531	0.3757042312345155
-0.4802851678750031	0.3723302871641448
-0.4802241327187531	0.3678910732278929
-0.4801630975625031	0.36239942959960336
-0.4801020624062531	0.35587126522527524
-0.4800410272500031	0.3483255106610642
-0.4799799920937531	0.33978405906192094
-0.4799189569375031	0.3302717114740112
-0.4798579217812531	0.31981611142007493
-0.4797968866250031	0.30844763775720613
-0.4797358514687531	0.2961993509353585
-0.4796748163125031	0.28310689086073015
-0.4796137811562531	0.269208326526719
-0.4795527460000031	0.25454413780666113
-0.4794917108437531	0.23915702439158024
-0.4794306756875031	0.22309176318856766
-0.4793696405312531	0.20639519722399627
-0.4793086053750031	0.18911597191345664
-0.4792475702187531	0.17130442246997293
-0.4791865350625031	0.15301249198676065
-0.4791254999062531	0.13429354435460164
-0.4790644647500031	0.11520213116407767
-0.4790034295937531	0.09579396929958536
-0.4789423944375031	0.07612571335612167
-0.4788813592812531	0.05625470096492003
-0.4788203241250031	0.03623899350770389
-0.4787592889687531	0.01613700661975427
-0.4786982538125031	-0.003992577872977072
-0.4786372186562531	-0.024090946868315772
-0.4785761835000031	-0.04409939143325413
-0.4785151483437531	-0.0639594850184252
-0.4784541131875031	-0.08361316385696788
-0.4783930780312531	-0.1030030050743914
-0.4783320428750031	-0.12207234907331457
-0.4782710077187531	-0.14076540651770805
-0.4782099725625031	-0.15902761083190411
-0.4781489374062531	-0.17680545666059627
-0.4780879022500031	-0.19404703644593682
-0.4780268670937531	-0.2107019256589152
-0.4779658319375031	-0.2267213233777347
-0.4779047967812531	-0.24205850420424377
-0.4778437616250031	-0.25666850363132787
-0.4777827264687531	-0.27050861432830314
-0.4777216913125031	-0.28353838035906953
-0.4776606561562531	-0.29571963510308746
-0.4775996210000031	-0.3070167895308172
-0.4775385858437531	-0.31739678416308936
-0.4774775506875031	-0.32682927775733933
-0.4774165155312531	-0.3352866902422468
-0.4773554803750031	-0.3427443040338161
-0.4772944452187531	-0.34918035295434485
-0.4772334100625031	-0.3545760419776229
-0.4771723749062531	-0.3589156550280308
-0.4771113397500031	-0.3621865641037736
-0.4770503045937531	-0.36437928961034155
-0.4769892694375031	-0.365487523269866
-0.4769282342812531	-0.36550813426222334
-0.4768671991250031	-0.3644412138367681
-0.4768061639687531	-0.3622900338369115
-0.4767451288125031	-0.3590610701167168
-0.4766840936562531	-0.354763976012095
-0.4766230585000031	-0.34941154272363933
-0.4765620233437531	-0.34301968678706474
-0.4765009881875031	-0.33560738041678917
-0.4764399530312531	-0.32719661411436285
-0.4763789178750031	-0.3178123234997899
-0.4763178827187531	-0.3074823207930891
-0.4762568475625031	-0.296237222811993
-0.4761958124062531	-0.2841103372703742
-0.4761347772500031	-0.27113759212583805
-0.4760737420937531	-0.25735742140274875
-0.4760127069375031	-0.24281064728580737
-0.4759516717812531	-0.22754036740477465
-0.4758906366250031	-0.21159183026509684
-0.4758296014687531	-0.19501229562496006
-0.4757685663125031	-0.17785090562149064
-0.4757075311562531	-0.16015853386945952
-0.4756464960000031	-0.14198761722043868
-0.4755854608437531	-0.12339208122146574
-0.4755244256875031	-0.10442704512578611
-0.4754633905312531	-0.08514879365532259
-0.4754023553750031	-0.06561455707843022
-0.4753413202187531	-0.045882275057946356
-0.4752802850625031	-0.02601060314408513
-0.4752192499062531	-0.006058519098055209
-0.4751582147500031	0.013914661198350204
-0.4750971795937531	0.03384958108019286
-0.4750361444375031	0.05368696790334725
-0.4749751092812531	0.07336776626031097
-0.4749140741250031	0.09283348083532623
-0.4748530389687531	0.11202607327627272
-0.4747920038125031	0.13088840269938462
-0.4747309686562531	0.14936427877838723
-0.4746699335000031	0.16739852626230703
-0.4746088983437531	0.184937403026724
-0.4745478631875031	0.20192850857270542
-0.4744868280312531	0.21832103674590295
-0.4744257928750031	0.2340660207525077
-0.4743647577187531	0.24911629038465075
-0.4743037225625031	0.2634267558515808
-0.4742426874062531	0.27695451601868337
-0.4741816522500031	0.2896589233499464
-0.4741206170937531	0.30150176956824026
-0.4740595819375031	0.3124473960740761
-0.4739985467812531	0.32246275913197364
-0.4739375116250031	0.3315175577140958
-0.4738764764687531	0.33958434557469325
-0.4738154413125031	0.3466385466723494
-0.4737544061562531	0.3526586173668252
-0.4736933710000031	0.3576260371117996
-0.4736323358437531	0.361525389794335
-0.4735713006875031	0.36434445211751676
-0.4735102655312531	0.3660741510018151
-0.4734492303750031	0.3667086602998755
-0.4733881952187531	0.36624539483480617
-0.4733271600625031	0.3646850132204011
-0.4732661249062531	0.36203142534396154
-0.4732050897500031	0.3582917913118069
-0.4731440545937531	0.35347648235074697
-0.4730830194375031	0.3475990671833072
-0.4730219842812531	0.34067627760712943
-0.4729609491250031	0.3327279301773336
-0.4728999139687531	0.3237769240127589
-0.4728388788125031	0.3138491084525596
-0.4727778436562531	0.3029732648718697
-0.4727168085000031	0.29118100528634794
-0.4726557733437531	0.2785066370767427
-0.4725947381875031	0.264987166178237
-0.4725337030312531	0.2506620624187224
-0.4724726678750031	0.23557323016182985
-0.4724116327187531	0.2197648950874924
-0.4723505975625031	0.2032833695175075
-0.4722895624062531	0.1861770583659084
-0.4722285272500031	0.16849621874592507
-0.4721674920937531	0.15029281634102207
-0.4721064569375031	0.13162045408514741
-0.4720454217812531	0.11253410026139131
-0.4719843866250031	0.0930900284456926
-0.4719233514687531	0.07334557165969327
-0.4718623163125031	0.05335899848576309
-0.4718012811562531	0.03318937934060012
-0.4717402460000031	0.01289625201686726
-0.4716792108437531	-0.00746030986918389
-0.4716181756875031	-0.027820093375472234
-0.4715571405312531	-0.04812284902614445
-0.4714961053750031	-0.06830835425037807
-0.4714350702187531	-0.08831683690158662
-0.4713740350625031	-0.10808890959479442
-0.4713129999062531	-0.12756586762224845
-0.4712519647500031	-0.14668988583722875
-0.4711909295937531	-0.16540410555228163
-0.4711298944375031	-0.18365285183049054
-0.4710688592812531	-0.20138181909683486
-0.4710078241250031	-0.21853818565499247
-0.4709467889687531	-0.23507077381791955
-0.4708857538125031	-0.2509302870537093
-0.4708247186562531	-0.2660693237478953
-0.4707636835000031	-0.2804426109944053
-0.4707026483437531	-0.2940071319820877
-0.4706416131875031	-0.3067222238350732
-0.4705805780312531	-0.318549708500213
-0.4705195428750031	-0.329454016363094
-0.4704585077187531	-0.3394023251576893
-0.4703974725625031	-0.34836455615482725
-0.4703364374062531	-0.3563135811821577
-0.4702754022500031	-0.3632252774756671
-0.4702143670937531	-0.3690784994801477
-0.4701533319375031	-0.37385530209355705
-0.4700922967812531	-0.377540896582095
-0.4700312616250031	-0.3801236732712628
-0.4699702264687531	-0.3815953532772894
-0.4699091913125031	-0.38195089105365565
-0.4698481561562531	-0.381188555806855
-0.4697871210000031	-0.3793099430271636
