Time	Frequency
-0.5000499171562467	-0.06285245014378069
-0.4999888819999967	-0.03163779174347436
-0.4999278468437467	-0.00025932321997296166
-0.4998668116874967	0.031134091687004515
-0.4998057765312467	0.062393325914042466
-0.4997447413749967	0.09336993665327781
-0.4996837062187467	0.12391673174972029
-0.4996226710624967	0.15388850245256766
-0.4995616359062467	0.1831428141257926
-0.4995006007499967	0.21154052101355866
-0.4994395655937467	0.23894661874903927
-0.4993785304374967	0.2652307553854602
-0.4993174952812467	0.2902679401413575
-0.4992564601249967	0.3139390903593707
-0.4991954249687467	0.33613163334553947
-0.4991343898124967	0.3567401149340048
-0.4990733546562467	0.375666522096221
-0.4990123194999967	0.39282098664639503
-0.4989512843437467	0.4081220780228933
-0.4988902491874967	0.42149716407613114
-0.4988292140312467	0.4328829490692503
-0.4987681788749967	0.44222558371496157
-0.4987071437187467	0.44948099019300436
-0.4986461085624967	0.45461515790403556
-0.4985850734062467	0.45760420054035367
-0.4985240382499967	0.45843453099945286
-0.4984630030937467	0.4571029253660994
-0.4984019679374967	0.45361652144336456
-0.4983409327812467	0.4479928117022556
-0.4982798976249967	0.44025955804669903
-0.4982188624687467	0.4304546525145992
-0.4981578273124967	0.41862590915615155
-0.4980967921562467	0.4048309437242823
-0.4980357569999967	0.3891367693095765
-0.4979747218437467	0.3716194986372921
-0.4979136866874967	0.3523641307225471
-0.4978526515312467	0.3314639279701401
-0.4977916163749967	0.3090200788666856
-0.4977305812187467	0.28514124848448424
-0.4976695460624967	0.25994298367806895
-0.4976085109062467	0.23354718857408097
-0.4975474757499967	0.2060815227825332
-0.4974864405937467	0.17767882134841564
-0.4974254054374967	0.14847643322121787
-0.4973643702812467	0.11861556926626617
-0.4973033351249967	0.08824055052855685
-0.4972422999687467	0.057498269699375354
-0.4971812648124967	0.026537373326016092
-0.4971202296562467	-0.004492563928562715
-0.4970591944999967	-0.0354414439251822
-0.4969981593437467	-0.06615967808437012
-0.4969371241874967	-0.09649882756840004
-0.4968760890312467	-0.12631214234604754
-0.4968150538749967	-0.15545558723409483
-0.4967540187187467	-0.18378827690283192
-0.4966929835624967	-0.21117319166908854
-0.4966319484062467	-0.23747804243135062
-0.4965709132499967	-0.26257568677429005
-0.4965098780937467	-0.2863447741928911
-0.4964488429374967	-0.3086705130370557
-0.4963878077812467	-0.32944499527900595
-0.4963267726249967	-0.3485678616280608
-0.4962657374687467	-0.36594681943600593
-0.4962047023124967	-0.3814978924712821
-0.4961436671562467	-0.39514609452432503
-0.4960826319999967	-0.4068256161755429
-0.4960215968437467	-0.4164801865916577
-0.4959605616874967	-0.42406338287275885
-0.4958995265312467	-0.4295388222460512
-0.4958384913749967	-0.4328803893159373
-0.4957774562187467	-0.43407226715639846
-0.4957164210624967	-0.43310914549743873
-0.4956553859062467	-0.429996181517816
-0.4955943507499967	-0.4247489442517894
-0.4955333155937467	-0.4173934219947965
-0.4954722804374967	-0.4079658723669839
-0.4954112452812467	-0.39651259493595736
-0.4953502101249967	-0.3830898022290993
-0.4952891749687467	-0.36776329349881914
-0.4952281398124967	-0.3506081273247105
-0.4951671046562467	-0.33170833075531725
-0.4951060694999967	-0.3111563990736707
-0.4950450343437467	-0.28905295281799154
-0.4949839991874967	-0.26550618656204317
-0.4949229640312467	-0.24063129244218887
-0.4948619288749967	-0.2145501122504011
-0.4948008937187467	-0.18739032236965383
-0.4947398585624967	-0.1592848211107302
-0.4946788234062467	-0.13037139609023776
-0.4946177882499967	-0.10079164550358725
-0.4945567530937467	-0.07069046360231414
-0.4944957179374967	-0.04021554397968018
-0.4944346827812467	-0.009516249761120756
-0.4943736476249967	0.02125676092985332
-0.4943126124687467	0.051952421391763204
-0.4942515773124967	0.08242001346247828
-0.4941905421562467	0.1125097057166316
-0.4941295069999967	0.14207365679541184
-0.4940684718437467	0.17096632409139903
-0.4940074366874967	0.1990453594579153
-0.4939464015312467	0.2261724224873969
-0.4938853663749967	0.2522136017692577
-0.4938243312187467	0.27704030650321
-0.4937632960624967	0.30052965006735877
-0.4937022609062467	0.32256528945367074
-0.4936412257499967	0.3430379528241771
-0.4935801905937467	0.3618456855348874
-0.4935191554374967	0.3788947623452624
-0.4934581202812467	0.3941000055426506
-0.4933970851249967	0.4073849752515083
-0.4933360499687467	0.418682623620562
-0.4932750148124967	0.42793563179507293
-0.4932139796562467	0.43509647029753995
-0.4931529444999967	0.4401277630277426
-0.4930919093437467	0.44300259422662186
-0.4930308741874967	0.44370443389236425
-0.4929698390312467	0.4422273122266682
-0.4929088038749967	0.43857594058747856
-0.4928477687187467	0.4327655478789658
-0.4927867335624967	0.42482191254978124
-0.4927256984062467	0.4147812172927321
-0.4926646632499967	0.4026898610030188
-0.4926036280937467	0.3886042834679454
-0.4925425929374967	0.3725906264606122
-0.4924815577812467	0.3547245235897817
-0.4924205226249967	0.33509062658694855
-0.4923594874687467	0.31378224283920475
-0.4922984523124967	0.2909009841061848
-0.4922374171562467	0.26655606427792716
-0.4921763819999967	0.24086397168972376
-0.4921153468437467	0.21394786338061067
-0.4920543116874967	0.18593684831089183
-0.4919932765312467	0.15696550116782124
-0.4919322413749967	0.1271732259051989
-0.4918712062187467	0.09670347300045451
-0.4918101710624967	0.06570295848672174
-0.4917491359062467	0.03432139636683623
-0.4916881007499967	0.0027102281669828692
-0.4916270655937467	-0.028977950187143473
-0.4915660304374967	-0.06058968340233313
-0.4915049952812467	-0.09197221011146287
-0.4914439601249967	-0.12297348101080026
-0.4913829249687467	-0.15344326785656695
-0.4913218898124967	-0.18323392882894496
-0.4912608546562467	-0.21220072939687934
-0.4911998194999967	-0.2402032094324449
-0.4911387843437467	-0.2671051855587078
-0.4910777491874967	-0.2927757861210448
-0.4910167140312467	-0.31709020288609585
-0.4909556788749967	-0.3399299026542555
-0.4908946437187467	-0.36118350747769434
-0.4908336085624967	-0.38074731702294606
-0.4907725734062467	-0.39852571851224317
-0.4907115382499967	-0.4144316514523865
-0.4906505030937467	-0.4283871804985629
-0.4905894679374967	-0.44032371522026525
-0.4905284327812467	-0.4501824252022893
-0.4904673976249967	-0.4579145721488733
-0.4904063624687467	-0.463481624695545
-0.4903453273124967	-0.4668555945883677
-0.4902842921562467	-0.4680191023620989
-0.4902232569999967	-0.4669654411442083
-0.4901622218437467	-0.46369870187574025
-0.4901011866874967	-0.4582336860760731
-0.4900401515312467	-0.45059586278148217
-0.4899791163749967	-0.4408212534337353
-0.4899180812187467	-0.4289562682524935
-0.4898570460624967	-0.41505745838522407
-0.4897960109062467	-0.3991912685902101
-0.4897349757499967	-0.38143374964366533
-0.4896739405937467	-0.3618700763412938
-0.4896129054374967	-0.34059429909798544
-0.4895518702812467	-0.31770877922767154
-0.4894908351249967	-0.29332367111822727
-0.4894297999687467	-0.26755656133000105
-0.4893687648124967	-0.24053165879770091
-0.4893077296562467	-0.21237933980849236
-0.4892466944999967	-0.18323558862940278
-0.4891856593437467	-0.15324109961163396
-0.4891246241874967	-0.12254079082378316
-0.4890635890312467	-0.09128308993778428
-0.4890025538749967	-0.059619090986385646
-0.4889415187187467	-0.027701903036745187
-0.4888804835624967	0.004314099852377944
-0.4888194484062467	0.0362739559675347
-0.4887584132499967	0.06802310987954381
-0.4886973780937467	0.09940793484357117
-0.4886363429374967	0.13027643753821222
-0.4885753077812467	0.1604793671268455
-0.4885142726249967	0.1898704772814811
-0.4884532374687467	0.21830755070027022
-0.4883922023124967	0.24565308890408014
-0.4883311671562467	0.2717746455989672
-0.4882701319999967	0.29654600796286074
-0.4882090968437467	0.319847444963954
-0.4881480616874967	0.3415662643131594
-0.4880870265312467	0.3615976475145333
-0.4880259913749967	0.37984493081276505
-0.4879649562187467	0.39622018419842486
-0.4879039210624967	0.4106445418455492
-0.4878428859062467	0.42304874545355176
-0.4877818507499967	0.43337339791147034
-0.4877208155937467	0.4415691507921217
-0.4876597804374967	0.4475972155665374
-0.4875987452812467	0.4514293001431933
-0.4875377101249967	0.45304784151881317
-0.4874766749687467	0.452446186673089
-0.4874156398124967	0.44962846904923
-0.4873546046562467	0.44460968641159465
-0.4872935694999967	0.4374156453188279
-0.4872325343437467	0.428082763321308
-0.4871714991874967	0.4166579567020474
-0.4871104640312467	0.40319840370230875
-0.4870494288749967	0.38777123103954847
-0.4869883937187467	0.3704532273973255
-0.4869273585624967	0.35133047653949495
-0.4868663234062467	0.33049789545115277
-0.4868052882499967	0.3080587727436843
-0.4867442530937467	0.284124369730968
-0.4866832179374967	0.25881319855812573
-0.4866221827812467	0.2322506028584481
-0.4865611476249967	0.20456808229891982
-0.4865001124687467	0.17590257190998515
-0.4864390773124967	0.14639600418799442
-0.4863780421562467	0.11619428803617017
-0.4863170069999967	0.08544683539533297
-0.4862559718437467	0.054305878600918525
-0.4861949366874967	0.022925362779966475
-0.4861339015312467	-0.008539400346882737
-0.4860728663749967	-0.039932620712481645
-0.4860118312187467	-0.0710990226722657
-0.4859507960624967	-0.1018842699150263
-0.4858897609062467	-0.13213590223802113
-0.4858287257499967	-0.1617040914701161
-0.4857676905937467	-0.19044235715942615
-0.4857066554374967	-0.21820824655276247
-0.4856456202812467	-0.24486403070973262
-0.4855845851249967	-0.27027754675874316
-0.4855235499687467	-0.2943225919661811
-0.4854625148124967	-0.3168797373491502
-0.4854014796562467	-0.33783689187439664
-0.4853404444999967	-0.35708973600271393
-0.4852794093437467	-0.3745424242572932
-0.4852183741874967	-0.390107912433823
-0.4851573390312467	-0.40370845244034165
-0.4850963038749967	-0.41527595207092566
-0.4850352687187467	-0.42475235389222565
-0.4849742335624967	-0.4320899259558791
-0.4849131984062467	-0.4372513963505926
-0.4848521632499967	-0.44021030212582096
-0.4847911280937467	-0.440951032578779
-0.4847300929374967	-0.439468890973784
-0.4846690577812467	-0.43577018213116214
-0.4846080226249967	-0.42987217312154047
-0.4845469874687467	-0.42180297922154736
-0.4844859523124967	-0.41160145709057433
-0.4844249171562467	-0.3993170462580957
-0.4843638819999967	-0.3850094530902926
-0.4843028468437467	-0.368748448617192
-0.4842418116874967	-0.3506134841525363
-0.4841807765312467	-0.33069330271145664
-0.4841197413749967	-0.30908549790576995
-0.4840587062187467	-0.2858961111930012
-0.4839976710624967	-0.261239042939282
-0.4839366359062467	-0.23523539065708277
-0.4838756007499967	-0.2080132193175055
-0.4838145655937467	-0.17970650857915896
-0.4837535304374967	-0.15045461077449745
-0.4836924952812467	-0.12040193164632296
-0.4836314601249967	-0.08969663756183223
-0.4835704249687467	-0.05849027119290703
-0.4835093898124967	-0.02693712755933234
-0.4834483546562467	0.004806912449150291
-0.4833873194999967	0.03658483101138721
-0.4833262843437467	0.06823924577244801
-0.4832652491874967	0.0996134244697657
-0.4832042140312467	0.13055185103374906
-0.4831431788749967	0.16090100336511295
-0.4830821437187467	0.19051021865661166
-0.4830211085624967	0.21923240011611533
-0.4829600734062467	0.24692463222160185
-0.4828990382499967	0.2734490429875693
-0.4828380030937467	0.29867349639830276
-0.4827769679374967	0.3224719987756698
-0.4827159327812467	0.34472563158601877
-0.4826548976249967	0.365323017440418
-0.4825938624687467	0.38416077507163704
-0.4825328273124967	0.40114423369870805
-0.4824717921562467	0.41618770326399457
-0.4824107569999967	0.4292150509955348
-0.4823497218437467	0.44016007618974085
-0.4822886866874967	0.4489666675791114
-0.4822276515312467	0.45558932739058566
-0.4821666163749967	0.45999328950294327
-0.4821055812187467	0.4621546062567377
-0.4820445460624967	0.4620604611223452
-0.4819835109062467	0.45970911637825784
-0.4819224757499967	0.45510992893846347
-0.4818614405937467	0.4482833781963052
-0.4818004054374967	0.439260899803323
-0.4817393702812467	0.4280847970134262
-0.4816783351249967	0.41480800226884024
-0.4816172999687467	0.3994938033548767
-0.4815562648124967	0.3822156314002596
-0.4814952296562467	0.36305658159909154
-0.4814341944999967	0.34210906553698217
-0.4813731593437467	0.3194744402460579
-0.4813121241874967	0.29526232246338946
-0.4812510890312467	0.26959024177216606
-0.4811900538749967	0.24258301838572266
-0.4811290187187467	0.2143720013290788
-0.4810679835624967	0.185094661798727
-0.4810069484062467	0.15489378242502863
-0.4809459132499967	0.1239167381918369
-0.4808848780937467	0.09231479691737964
-0.4808238429374967	0.0602424773697756
-0.4807628077812467	0.027856628167908473
-0.4807017726249967	-0.004684321361968002
-0.4806407374687467	-0.037220910071831134
-0.4805797023124967	-0.06959387192304657
-0.4805186671562467	-0.10164447259713834
-0.4804576319999967	-0.13321550608725014
-0.4803965968437467	-0.16415219666442288
-0.4803355616874967	-0.1943026206118385
-0.4802745265312467	-0.22351882107171991
-0.4802134913749967	-0.2516572887592087
-0.4801524562187467	-0.27857980118373576
-0.4800914210624967	-0.30415401386573027
-0.4800303859062467	-0.3282542440845693
-0.4799693507499967	-0.3507620147029072
-0.4799083155937467	-0.37156653593455047
-0.4798472804374967	-0.3905655503125874
-0.4797862452812467	-0.40766552417605395
-0.4797252101249967	-0.42278231593721766
-0.4796641749687467	-0.43584150729506377
-0.4796031398124967	-0.4467788028155107
-0.4795421046562467	-0.45554040893652376
-0.4794810694999967	-0.4620831303183986
-0.4794200343437467	-0.46637480891993743
-0.4793589991874967	-0.4683943531674509
-0.4792979640312467	-0.46813184439195554
-0.4792369288749967	-0.4655886760614391
-0.4791758937187467	-0.46077745955598076
-0.4791148585624967	-0.45372202766949005
-0.4790538234062467	-0.4444573008590452
-0.4789927882499967	-0.4330291041069768
-0.4789317530937467	-0.4194939834586251
-0.4788707179374967	-0.403918875112662
-0.4788096827812467	-0.38638085129901445
-0.4787486476249967	-0.3669666769185586
-0.4786876124687467	-0.34577237752121276
-0.4786265773124967	-0.3229028943450896
-0.4785655421562467	-0.29847138531657535
-0.4785045069999967	-0.27259873892704717
-0.4784434718437467	-0.24541310640774502
-0.4783824366874967	-0.2170490830797166
-0.4783214015312467	-0.1876470789140002
-0.4782603663749967	-0.1573527278506281
-0.4781993312187467	-0.12631615184070152
-0.4781382960624967	-0.09469106318414106
-0.4780772609062467	-0.06263408387368669
-0.4780162257499967	-0.03030422707123798
-0.4779551905937467	0.002138335249362733
-0.4778941554374967	0.03453288249352641
-0.4778331202812467	0.06671867663884039
-0.4777720851249967	0.09853619417615371
-0.4777110499687467	0.1298276563042282
-0.4776500148124967	0.1604378818105266
-0.4775889796562467	0.19021504130045586
-0.4775279444999967	0.21901137694391484
-0.4774669093437467	0.24668410151264833
-0.4774058741874967	0.2730958801991202
-0.4773448390312467	0.2981156532675218
-0.4772838038749967	0.32161929840626413
-0.4772227687187467	0.34349017540273996
-0.4771617335624967	0.36361975700217747
-0.4771006984062467	0.38190816129214566
-0.4770396632499967	0.3982646497714581
-0.4769786280937467	0.41260809067188176
-0.4769175929374967	0.42486734537497695
-0.4768565577812467	0.4349816474618959
-0.4767955226249967	0.4429008997300154
-0.4767344874687467	0.4485859239144854
-0.4766734523124967	0.45200867843289383
-0.4766124171562467	0.4531523653976629
-0.4765513819999967	0.45201155972591756
-0.4764903468437467	0.4485922175651769
-0.4764293116874967	0.4429116497105565
-0.4763682765312467	0.43499845504947976
-0.4763072413749967	0.424892365267861
-0.4762462062187467	0.4126440705877258
-0.4761851710624967	0.3983149447057923
-0.4761241359062467	0.38197676978411554
-0.4760631007499967	0.36371140372897853
-0.4760020655937467	0.34361025440181137
-0.4759410304374967	0.3217740084950182
-0.4758799952812467	0.2983120711238368
-0.4758189601249967	0.273341830751295
-0.4757579249687467	0.24698842476550237
-0.4756968898124967	0.21938389469761782
-0.4756358546562467	0.19066645001025184
-0.4755748194999967	0.1609800913449043
-0.4755137843437467	0.130473605093532
-0.4754527491874967	0.09929988917941118
-0.4753917140312467	0.06761534390899208
-0.4753306788749967	0.03557889676808416
-0.4752696437187467	0.003351301524340689
-0.4752086085624967	-0.028905650943302476
-0.4751475734062467	-0.06102995569114952
-0.4750865382499967	-0.09286020215682546
-0.4750255030937467	-0.12423647687917289
-0.4749644679374967	-0.15500093988299873
-0.4749034327812467	-0.18499877281136112
-0.4748423976249967	-0.21407904095605873
-0.4747813624687467	-0.24209518731908666
-0.4747203273124967	-0.26890598547529276
-0.4746592921562467	-0.29437616786013543
-0.4745982569999967	-0.31837711782345735
-0.4745372218437467	-0.3407875171040369
-0.4744761866874967	-0.3614938626512458
-0.4744151515312467	-0.3803912803600817
-0.4743541163749967	-0.397383793538005
-0.4742930812187467	-0.4123848570122291
-0.4742320460624967	-0.4253180093828631
-0.4741710109062467	-0.4361169990150384
-0.4741099757499967	-0.4447261672988881
-0.4740489405937467	-0.4511009188813912
-0.4739879054374967	-0.45520775101413086
-0.4739268702812467	-0.45702445250408374
-0.4738658351249967	-0.45654034791758824
-0.4738047999687467	-0.453756223562722
-0.4737437648124967	-0.44868437584170934
-0.4736827296562467	-0.44134858312908287
-0.4736216944999967	-0.43178396360360555
-0.4735606593437467	-0.4200367861836629
-0.4734996241874967	-0.4061643160766264
-0.4734385890312467	-0.3902344550289467
-0.4733775538749967	-0.37232544249470256
-0.4733165187187467	-0.3525255195218511
-0.4732554835624967	-0.3309323565485121
-0.4731944484062467	-0.30765274224677397
-0.4731334132499967	-0.28280194586854296
-0.4730723780937467	-0.25650310942253
-0.4730113429374967	-0.22888680733558223
-0.4729503077812467	-0.20009019181379012
-0.4728892726249967	-0.17025644116505928
-0.4728282374687467	-0.1395340364559321
-0.4727672023124967	-0.10807594471039716
-0.4727061671562467	-0.07603895975902485
-0.4726451319999967	-0.04358281680619846
-0.4725840968437467	-0.010869491516503176
-0.4725230616874967	0.021937679169091666
-0.4724620265312467	0.05467477818335495
-0.4724009913749967	0.0871781484996553
-0.4723399562187467	0.11928519492692122
-0.4722789210624967	0.1508352191592647
-0.4722178859062467	0.18167019698680023
-0.4721568507499967	0.21163558017348003
-0.4720958155937467	0.24058112828655767
-0.4720347804374967	0.26836151525002605
-0.4719737452812467	0.29483730254985524
-0.4719127101249967	0.31987535227434916
-0.4718516749687467	0.34334968278500605
-0.4717906398124967	0.36514218226905176
-0.4717296046562467	0.3851428769284428
-0.4716685694999967	0.4032508419039074
-0.4716075343437467	0.41937454621631437
-0.4715464991874967	0.43343228133058537
-0.4714854640312467	0.44535266316846756
-0.4714244288749967	0.4550749480154839
-0.4713633937187467	0.46254939373946685
-0.4713023585624967	0.46773742019690157
-0.4712413234062467	0.47061189009131627
-0.4711802882499967	0.4711572531069267
-0.4711192530937467	0.46936955889850485
-0.4710582179374967	0.46525655514374004
-0.4709971827812467	0.4588376286768148
-0.4709361476249967	0.4501436995138041
-0.4708751124687467	0.4392171033321367
-0.4708140773124967	0.42611135958932495
-0.4707530421562467	0.4108909150881043
-0.4706920069999967	0.3936308493398732
-0.4706309718437467	0.3744164648072575
-0.4705699366874967	0.3533428821306551
-0.4705089015312467	0.3305146145979218
-0.4704478663749967	0.3060449419718656
-0.4703868312187467	0.28005543776322905
-0.4703257960624967	0.2526753933026782
-0.4702647609062467	0.22404100318744727
-0.4702037257499967	0.19429488628496241
-0.4701426905937467	0.16358529705886551
-0.4700816554374967	0.13206527222355172
-0.4700206202812467	0.09989210149858302
-0.4699595851249967	0.06722632337303203
-0.4698985499687467	0.03423099397819939
-0.4698375148124967	0.0010709476678882736
-0.4697764796562467	-0.03208813760198581
-0.4697154444999967	-0.06508051874160697
