Time	Frequency
-0.500005960843751	-0.13555418984936915
-0.49994492568750104	-0.11364933457280679
-0.49988389053125104	-0.09137671640771312
-0.49982285537500104	-0.06881385882770227
-0.49976182021875104	-0.046039413140032195
-0.49970078506250104	-0.023132714746611896
-0.49963974990625104	-0.00017352618339380073
-0.49957871475000104	0.022758092791724416
-0.49951767959375104	0.04558228264620332
-0.49945664443750104	0.0682194925545813
-0.49939560928125104	0.0905908125781748
-0.49933457412500104	0.11261827304735414
-0.49927353896875104	0.13422506340321938
-0.49921250381250104	0.1553358607335389
-0.49915146865625104	0.1758770093426229
-0.49909043350000104	0.19577688439040225
-0.49902939834375104	0.21496606767489113
-0.49896836318750104	0.23337751748399913
-0.49890732803125104	0.2509470441977695
-0.49884629287500104	0.267613284875588
-0.49878525771875104	0.2833179635331314
-0.49872422256250104	0.2980062895689565
-0.49866318740625104	0.3116268817656639
-0.49860215225000104	0.32413209841641477
-0.49854111709375104	0.33547822686165507
-0.49848008193750104	0.3456255124388438
-0.49841904678125104	0.35453842448867706
-0.49835801162500104	0.362185722713341
-0.49829697646875104	0.36854054422403854
-0.49823594131250104	0.37358057010941764
-0.49817490615625104	0.37728803886691836
-0.49811387100000104	0.3796498358619134
-0.49805283584375104	0.38065755675350926
-0.49799180068750104	0.3803075072746542
-0.49793076553125104	0.37860073845523434
-0.49786973037500104	0.3755430426495884
-0.49780869521875104	0.3711449312795585
-0.49774766006250104	0.36542160067692564
-0.49768662490625104	0.35839288555849974
-0.49762558975000104	0.35008318545906425
-0.49756455459375104	0.3405213930268464
-0.49750351943750104	0.32974077826506937
-0.49744248428125104	0.3177788894015931
-0.49738144912500104	0.3046774311905007
-0.49732041396875104	0.2904820840689277
-0.49725937881250104	0.2752423929151272
-0.49719834365625104	0.2590115758066853
-0.49713730850000104	0.2418463209205233
-0.49707627334375104	0.22380664489461438
-0.49701523818750104	0.2049556155881546
-0.49695420303125104	0.18535918052660072
-0.49689316787500104	0.16508595981127105
-0.49683213271875104	0.14420690689152513
-0.49677109756250104	0.12279519024934539
-0.49671006240625104	0.10092587802786972
-0.49664902725000104	0.07867562066002905
-0.49658799209375104	0.05612252297118234
-0.49652695693750104	0.03334573769669844
-0.49646592178125104	0.01042524354836138
-0.49640488662500104	-0.012558369902962059
-0.49634385146875104	-0.03552432729494337
-0.49628281631250104	-0.05839181947066959
-0.49622178115625104	-0.08108032467547464
-0.49616074600000104	-0.10350994293434604
-0.49609971084375104	-0.12560157405972683
-0.49603867568750104	-0.14727729140889445
-0.49597764053125104	-0.16846057307533707
-0.49591660537500104	-0.1890765157228652
-0.49585557021875104	-0.20905222611476798
-0.49579453506250104	-0.2283169768812423
-0.49573349990625104	-0.24680241266732336
-0.49567246475000104	-0.2644429605782074
-0.49561142959375104	-0.28117591235406886
-0.49555039443750104	-0.2969416506903177
-0.49548935928125104	-0.3116839549041327
-0.49542832412500104	-0.32535012542207864
-0.49536728896875104	-0.3378911756766813
-0.49530625381250104	-0.3492620041693322
-0.49524521865625104	-0.3594216192874153
-0.49518418350000104	-0.3683331848327105
-0.49512314834375104	-0.3759641918791942
-0.49506211318750104	-0.38228663445824396
-0.49500107803125104	-0.38727700072656335
-0.49494004287500104	-0.39091644972888684
-0.49487900771875104	-0.39319083550464556
-0.49481797256250104	-0.3940907591181976
-0.49475693740625104	-0.39361163467299465
-0.49469590225000104	-0.3917536681936815
-0.49463486709375104	-0.3885218914978832
-0.49457383193750104	-0.3839261331339749
-0.49451279678125104	-0.3779809934305385
-0.49445176162500104	-0.37070578100848034
-0.49439072646875104	-0.36212448429063665
-0.49432969131250104	-0.3522656446462628
-0.49426865615625104	-0.3411622876890255
-0.49420762100000104	-0.32885182339544683
-0.49414658584375104	-0.3153758683967527
-0.49408555068750104	-0.30078017326939593
-0.49402451553125104	-0.2851143866420229
-0.49396348037500104	-0.2684319735943411
-0.49390244521875104	-0.2507899410399487
-0.49384141006250104	-0.23224868963116255
-0.49378037490625104	-0.21287185267156244
-0.49371933975000104	-0.19272592316096562
-0.49365830459375104	-0.1718802200141333
-0.49359726943750104	-0.1504065057787656
-0.49353623428125104	-0.12837876170585197
-0.49347519912500104	-0.10587300074145818
-0.49341416396875104	-0.08296694265352532
-0.49335312881250104	-0.059739711088470315
-0.49329209365625104	-0.03627164878731104
-0.49323105850000104	-0.012644013756963574
-0.49317002334375104	0.011061420567877348
-0.49310898818750104	0.03476244459266897
-0.49304795303125104	0.05837686372578616
-0.49298691787500104	0.08182275879732384
-0.49292588271875104	0.1050186840118146
-0.49286484756250104	0.12788404472995363
-0.49280381240625104	0.15033934602833857
-0.49274277725000104	0.17230648488892752
-0.49268174209375104	0.19370897069104742
-0.49262070693750104	0.21447225017589425
-0.49255967178125104	0.23452401278913718
-0.49249863662500104	0.2537942726050809
-0.49243760146875104	0.2722157904326578
-0.49237656631250104	0.2897242828160069
-0.49231553115625104	0.3062584944751559
-0.49225449600000104	0.321760647319621
-0.49219346084375104	0.33617647689933694
-0.49213242568750104	0.349455431443128
-0.49207139053125104	0.36155097473042636
-0.49201035537500104	0.3724206235986371
-0.49194932021875104	0.3820261241989282
-0.49188828506250104	0.3903336420454979
-0.49182724990625104	0.3973138488375255
-0.49176621475000104	0.4029419917617922
-0.49170517959375104	0.4071980377899491
-0.49164414443750104	0.41006673720595804
-0.49158310928125104	0.41153764023741474
-0.49152207412500104	0.4116051742834226
-0.49146103896875104	0.41026866056537803
-0.49140000381250104	0.40753230209101304
-0.49133896865625104	0.4034051836179314
-0.49127793350000104	0.39790124349757655
-0.49121689834375104	0.39103922414001446
-0.49115586318750104	0.38284259722456115
-0.49109482803125104	0.37333951679447486
-0.49103379287500104	0.36256267932581965
-0.49097275771875104	0.350549237513
-0.49091172256250104	0.33734069185778415
-0.49085068740625104	0.3229826784163676
-0.49078965225000104	0.3075249055568497
-0.49072861709375104	0.2910208949093236
-0.49066758193750104	0.27352785158716236
-0.49060654678125104	0.2551064460673558
-0.49054551162500104	0.2358205904064546
-0.49048447646875104	0.21573726612325997
-0.49042344131250104	0.19492617997709774
-0.49036240615625104	0.1734597133953162
-0.49030137100000104	0.15141243079561326
-0.49024033584375104	0.12886098433228363
-0.49017930068750104	0.10588389832976862
-0.49011826553125104	0.0825609982576953
-0.49005723037500104	0.05897351599800468
-0.48999619521875104	0.03520356943954397
-0.48993516006250104	0.011333850359883373
-0.48987412490625104	-0.01255247327994818
-0.48981308975000104	-0.036372242995193683
-0.48975205459375104	-0.06004247837202981
-0.48969101943750104	-0.08348073250198071
-0.48962998428125104	-0.10660536723103767
-0.48956894912500104	-0.12933579440959064
-0.48950791396875104	-0.15159284469031645
-0.48944687881250104	-0.17329896631548602
-0.48938584365625104	-0.19437854262337265
-0.48932480850000104	-0.21475814764745094
-0.48926377334375104	-0.23436679341727684
-0.48920273818750104	-0.25313619904748397
-0.48914170303125104	-0.27100100993585946
-0.48908066787500104	-0.28789906471984816
-0.48901963271875104	-0.30377154557160524
-0.48895859756250104	-0.3185632771184638
-0.48889756240625104	-0.33222286419268804
-0.48883652725000104	-0.34470283762421833
-0.48877549209375104	-0.35595995445719586
-0.48871445693750104	-0.36595518756778433
-0.48865342178125104	-0.37465397643411497
-0.48859238662500104	-0.3820263444016978
-0.48853135146875104	-0.38804690548597354
-0.48847031631250104	-0.39269509905905436
-0.48840928115625104	-0.3959551634411102
-0.48834824600000104	-0.3978162051434047
-0.48828721084375104	-0.3982722892648645
-0.48822617568750104	-0.39732240471680397
-0.48816514053125104	-0.39497050068473505
-0.48810410537500104	-0.3912254651851171
-0.48804307021875104	-0.3861011004793019
-0.48798203506250104	-0.3796160676645908
-0.48792099990625104	-0.37179382582325954
-0.48785996475000104	-0.3626625657958888
-0.48779892959375104	-0.352255073230915
-0.48773789443750104	-0.34060867110544873
-0.48767685928125104	-0.3277650348504166
-0.48761582412500104	-0.313770075573653
-0.48755478896875104	-0.2986737970068664
-0.48749375381250104	-0.2825300465969324
-0.48743271865625104	-0.265396446048476
-0.48737168350000104	-0.24733406605736655
-0.48731064834375104	-0.22840728386925097
-0.48724961318750104	-0.20868357045099195
-0.48718857803125104	-0.1882331599143187
-0.48712754287500104	-0.16712893808898285
-0.48706650771875104	-0.1454460665605395
-0.48700547256250104	-0.12326176593395752
-0.48694443740625104	-0.10065507620355657
-0.48688340225000104	-0.0777065136596349
-0.48682236709375104	-0.054497826054369675
-0.48676133193750104	-0.031111711477201084
-0.48670029678125104	-0.007631483269603316
-0.48663926162500104	0.015859173951393288
-0.48657822646875104	0.039276522968667155
-0.48651719131250104	0.06253710104963894
-0.48645615615625104	0.08555791942637563
-0.48639512100000104	0.10825690527238706
-0.48633408584375104	0.1305530486965877
-0.48627305068750104	0.15236674920170434
-0.48621201553125104	0.17362016978956582
-0.48615098037500104	0.19423733091740816
-0.48608994521875104	0.21414458832614042
-0.48602891006250104	0.23327077440315067
-0.48596787490625104	0.2515474176662779
-0.48590683975000104	0.2689091303319821
-0.48584580459375104	0.2852937161908779
-0.48578476943750104	0.30064239568303536
-0.48572373428125104	0.3149001148174377
-0.48566269912500104	0.3280156614571093
-0.48560166396875104	0.33994181736035256
-0.48554062881250104	0.35063564078090115
-0.48547959365625104	0.360058527358135
-0.48541855850000104	0.3681763648356219
-0.48535752334375104	0.3749596945722752
-0.48529648818750104	0.38038376853418515
-0.48523545303125104	0.3844286911772242
-0.48517441787500104	0.38707943269424616
-0.48511338271875104	0.3883259351633466
-0.48505234756250104	0.38816314323323264
-0.48499131240625104	0.38659097625647026
-0.48493027725000104	0.38361441147469877
-0.48486924209375104	0.3792433970656654
-0.48480820693750104	0.3734928563475892
-0.48474717178125104	0.3663826395479373
-0.48468613662500104	0.3579374217092838
-0.48462510146875104	0.34818667526226216
-0.48456406631250104	0.3371644997773763
-0.48450303115625104	0.32490956856110986
-0.48444199600000104	0.31146494322025675
-0.48438096084375104	0.2968779519884686
-0.48431992568750104	0.2812000196528912
-0.48425889053125104	0.2644864591079831
-0.48419785537500104	0.24679636397324042
-0.48413682021875104	0.22819224372391636
-0.48407578506250104	0.20873998201682958
-0.48401474990625104	0.1885084986147124
-0.48395371475000104	0.16756947832227806
-0.48389267959375104	0.14599726207921085
-0.48383164443750104	0.12386839960630114
-0.48377060928125104	0.10126153412304173
-0.48370957412500104	0.0782570267451398
-0.48364853896875104	0.05493670885121576
-0.48358750381250104	0.03138363688168625
-0.48352646865625104	0.007681640693107056
-0.48346543350000104	-0.016084728288383657
-0.48340439834375104	-0.039830719222814025
-0.48334336318750104	-0.0634716064462707
-0.48328232803125104	-0.08692289683619997
-0.48322129287500104	-0.11010080640134141
-0.48316025771875104	-0.13292239948067636
-0.48309922256250104	-0.1553060013651458
-0.48303818740625104	-0.1771713740110006
-0.48297715225000104	-0.1984401304547558
-0.48291611709375104	-0.2190359457824365
-0.48285508193750104	-0.23888473238684138
-0.48279404678125104	-0.25791516632347866
-0.48273301162500104	-0.276058684361815
-0.48267197646875104	-0.293249783228288
-0.48261094131250104	-0.30942643500597955
-0.48254990615625104	-0.32453006526235223
-0.48248887100000104	-0.33850587300686735
-0.48242783584375104	-0.3513031150200455
-0.48236680068750104	-0.3628750989586903
-0.48230576553125104	-0.3731794931491593
-0.48224473037500104	-0.38217847196444643
-0.48218369521875104	-0.3898387592804698
-0.48212266006250104	-0.3961318519614305
-0.48206162490625104	-0.4010340795072402
-0.48200058975000104	-0.4045266735265355
-0.48193955459375104	-0.4065958905252663
-0.48187851943750104	-0.4072330071294716
-0.48181748428125104	-0.40643438602202614
-0.48175644912500104	-0.40420150000082167
-0.48169541396875104	-0.4005408985418342
-0.48163437881250104	-0.3954642093243386
-0.48157334365625104	-0.38898810659306565
-0.48151230850000104	-0.38113423478575653
-0.48145127334375104	-0.37192913725419025
-0.48139023818750104	-0.36140420138795853
-0.48132920303125104	-0.34959548185706946
-0.48126816787500104	-0.33654364197637643
-0.48120713271875104	-0.32229379058546204
-0.48114609756250104	-0.30689527576151593
-0.48108506240625104	-0.29040161512153556
-0.48102402725000104	-0.2728702045578396
-0.48096299209375104	-0.25436216159426067
-0.48090195693750104	-0.23494214410670047
-0.48084092178125104	-0.21467804475278157
-0.48077988662500104	-0.1936408130818661
-0.48071885146875104	-0.1719042015683404
-0.48065781631250104	-0.14954446198328925
-0.48059678115625104	-0.12664009871653872
-0.48053574600000104	-0.10327166259937835
-0.48047471084375104	-0.07952129108397935
-0.48041367568750104	-0.055472602877787824
-0.48035264053125104	-0.03121034710776556
-0.48029160537500104	-0.006819940744340138
-0.48023057021875104	0.017612523163633882
-0.48016953506250104	0.04200084161736167
-0.48010849990625104	0.06625897737926971
-0.48004746475000104	0.09030118493711652
-0.47998642959375104	0.11404249566876858
-0.47992539443750104	0.1373990404869077
-0.47986435928125104	0.16028814035418643
-0.47980332412500104	0.18262880591215308
-0.47974228896875104	0.20434198749449714
-0.47968125381250104	0.2253507334806881
-0.47962021865625104	0.245580639503299
-0.47955918350000104	0.26495998250553904
-0.47949814834375104	0.28342006428674565
-0.47943711318750104	0.30089536834172986
-0.47937607803125104	0.3173239035055457
-0.47931504287500104	0.3326473409233306
-0.47925400771875104	0.34681123341712683
-0.47919297256250104	0.35976528702570937
-0.47913193740625104	0.37146340298705416
-0.47907090225000104	0.38186401548410015
-0.47900986709375104	0.39093009287793307
-0.47894883193750104	0.39862932995444106
-0.47888779678125104	0.4049343199676635
-0.47882676162500104	0.40982254500555226
-0.47876572646875104	0.4132765345632148
-0.47870469131250104	0.4152839293565343
-0.47864365615625104	0.4158374830622111
-0.47858262100000104	0.41493512419209644
-0.47852158584375104	0.4125799701695149
-0.47846055068750104	0.4087802897138741
-0.47839951553125104	0.40354950675678625
-0.47833848037500104	0.3969061257086658
-0.47827744521875104	0.388873704432507
-0.47821641006250104	0.3794807277229874
-0.47815537490625104	0.368760538021195
-0.47809433975000104	0.35675124015313453
-0.47803330459375104	0.34349546869625736
-0.47797226943750104	0.32904039476435876
-0.47791123428125104	0.31343741911425116
-0.47785019912500104	0.29674201808971024
-0.47778916396875104	0.2790136741113023
-0.47772812881250104	0.2603154509189322
-0.47766709365625104	0.24071393130379695
-0.47760605850000104	0.22027896727442955
-0.47754502334375104	0.199083330796602
-0.47748398818750104	0.17720254793814044
-0.47742295303125104	0.15471462038415593
-0.47736191787500104	0.13169972905067212
-0.47730088271875104	0.10823989437601075
-0.47723984756250104	0.08441880946015015
-0.47717881240625104	0.06032145356489655
-0.47711777725000104	0.03603375190853545
-0.47705674209375104	0.011642403017825308
-0.47699570693750104	-0.012765562816956125
-0.47693467178125104	-0.0371030288836066
-0.47687363662500104	-0.06128312243286934
-0.47681260146875104	-0.08521952614050576
-0.47675156631250104	-0.10882673724721229
-0.47669053115625104	-0.13202050585695194
-0.47662949600000104	-0.15471798669840228
-0.47656846084375104	-0.17683807855026581
-0.47650742568750104	-0.1983018245868025
-0.47644639053125104	-0.21903253489740387
-0.47638535537500104	-0.2389561475258143
-0.47632432021875104	-0.25800151214451134
-0.47626328506250104	-0.27610058922083053
-0.47620224990625104	-0.29318873037897397
-0.47614121475000104	-0.3092049064498373
-0.47608017959375104	-0.32409193257555413
-0.47601914443750104	-0.33779664590190484
-0.47595810928125104	-0.350270131241061
-0.47589707412500104	-0.3614678971346464
-0.47583603896875104	-0.37135001355390673
-0.47577500381250104	-0.3798812597169559
-0.47571396865625104	-0.387031276379456
-0.47565293350000104	-0.39277467235649915
-0.47559189834375104	-0.39709107461413
-0.47553086318750104	-0.3999652613565886
-0.47546982803125104	-0.4013871935572747
-0.47540879287500104	-0.4013520336982663
-0.47534775771875104	-0.3998602034174421
-0.47528672256250104	-0.3969173577806505
-0.47522568740625104	-0.39253436502749034
-0.47516465225000104	-0.38672729707185494
-0.47510361709375104	-0.3795173371596195
-0.47504258193750104	-0.3709307307019465
-0.47498154678125104	-0.36099868911854893
-0.47492051162500104	-0.3497572720652556
-0.47485947646875104	-0.33724726063029375
-0.47479844131250104	-0.3235140169245952
-0.47473740615625104	-0.308607345373819
-0.47467637100000104	-0.29258122696766853
-0.47461533584375104	-0.2754937770769136
-0.47455430068750104	-0.25740688810376294
-0.47449326553125104	-0.23838607650345167
-0.47443223037500104	-0.21850029960659068
-0.47437119521875104	-0.19782156797657688
-0.47431016006250104	-0.17642485854128298
-0.47424912490625104	-0.1543876764431952
-0.47418808975000104	-0.13178994097550867
-0.47412705459375104	-0.1087135616120632
-0.47406601943750104	-0.08524217688596662
-0.47400498428125104	-0.06146102387946457
-0.47394394912500104	-0.037456256803012004
-0.47388291396875104	-0.013315034144500165
-0.47382187881250104	0.010874953467755433
-0.47376084365625104	0.035025996883993465
-0.47369980850000104	0.05905026530354581
-0.47363877334375104	0.08286049465299342
-0.47357773818750104	0.10637016675908764
-0.47351670303125104	0.12949371474540025
-0.47345566787500104	0.15214707902916308
-0.47339463271875104	0.1742477416399557
-0.47333359756250104	0.19571521254808022
-0.47327256240625104	0.21647129982216107
-0.47321152725000104	0.23644022260165887
-0.47315049209375104	0.2555491657067502
-0.47308945693750104	0.27372833122078716
-0.47302842178125104	0.29091117950144046
-0.47296738662500104	0.30703490690550544
-0.47290635146875104	0.3220403949614109
-0.47284531631250104	0.33587254685964435
-0.47278428115625104	0.3484805800968469
-0.47272324600000104	0.35981800646212
-0.47266221084375104	0.3698429816715505
-0.47260117568750104	0.37851839642227386
-0.47254014053125104	0.38581195743955704
-0.47247910537500104	0.39169640751591683
-0.47241807021875104	0.39614955670839075
-0.47235703506250104	0.39915438273065557
-0.47229599990625104	0.4006991026223149
-0.47223496475000104	0.4007772196082523
-0.47217392959375104	0.39938753508782276
-0.47211289443750104	0.39653416282191756
-0.47205185928125104	0.3922265309567131
-0.47199082412500104	0.38647932444132654
-0.47192978896875104	0.3793124601892533
-0.47186875381250104	0.3707509967268965
-0.47180771865625104	0.36082506858190055
-0.47174668350000104	0.34956975744759106
-0.47168564834375104	0.3370249829905071
-0.47162461318750104	0.32323536793617935
-0.47156357803125104	0.30825003904566184
-0.47150254287500104	0.29212253048290054
-0.47144150771875104	0.2749104890789263
-0.47138047256250104	0.25667556916817413
-0.47131943740625104	0.2374831418194973
-0.47125840225000104	0.2174020775555534
-0.47119736709375104	0.1965045657771907
-0.47113633193750104	0.17486568407362546
-0.47107529678125104	0.15256337076995563
-0.47101426162500104	0.1296779314679445
-0.47095322646875104	0.1062918182948279
-0.47089219131250104	0.08248945908726438
-0.47083115615625104	0.05835670779547451
-0.47077012100000104	0.03398075107799276
-0.47070908584375104	0.009449699326721336
-0.47064805068750104	-0.01514775022721412
-0.47058701553125104	-0.0397225551186913
-0.47052598037500104	-0.06418573582303388
-0.47046494521875104	-0.08844865119145208
-0.47040391006250104	-0.11242331456554168
