Time	Frequency
-0.5000155996874867	0.37465076636518563
-0.49995456453123666	0.35183083135378534
-0.49989352937498666	0.3270667538994541
-0.49983249421873666	0.30049322179132604
-0.49977145906248666	0.2722548744800621
-0.49971042390623666	0.24250561506470378
-0.49964938874998666	0.211407935021591
-0.49958835359373666	0.17913169718102295
-0.49952731843748666	0.14585341037945274
-0.49946628328123666	0.11175527369867223
-0.49940524812498666	0.07702405211292943
-0.49934421296873666	0.04185004781772591
-0.49928317781248666	0.00642624320037426
-0.49922214265623666	-0.02905298811207193
-0.49916110749998666	-0.06439301630317854
-0.49910007234373666	-0.09939960288685855
-0.49903903718748666	-0.1338804827770689
-0.49897800203123666	-0.16764624582082333
-0.49891696687498666	-0.2005111465940942
-0.49885593171873666	-0.23229454798000182
-0.49879489656248666	-0.26282166750675906
-0.49873386140623666	-0.29192456206685297
-0.49867282624998666	-0.31944312101797484
-0.49861179109373666	-0.34522599645969204
-0.49855075593748666	-0.3691313288852654
-0.49848972078123666	-0.3910275674214694
-0.49842868562498666	-0.41079436565037897
-0.49836765046873666	-0.4283229812335332
-0.49830661531248666	-0.4435170943846291
-0.49824558015623666	-0.45629327836104305
-0.49818454499998666	-0.46658141326066305
-0.49812350984373666	-0.47432522381763126
-0.49806247468748666	-0.47948240020630534
-0.49800143953123666	-0.482024994204832
-0.49794040437498666	-0.48193955674555283
-0.49787936921873666	-0.4792271176873488
-0.49781833406248666	-0.4739032994500839
-0.49775729890623666	-0.4659981870039741
-0.49769626374998666	-0.45555614980171033
-0.49763522859373666	-0.44263562895312186
-0.49757419343748666	-0.4273088215739269
-0.49751315828123666	-0.40966122676433475
-0.49745212312498666	-0.3897912402412995
-0.49739108796873666	-0.36780963494716234
-0.49733005281248666	-0.34383877095284815
-0.49726901765623666	-0.31801217678601396
-0.49720798249998666	-0.2904736524124569
-0.49714694734373666	-0.2613764058123997
-0.49708591218748666	-0.23088244091142782
-0.49702487703123666	-0.19916140405393662
-0.49696384187498666	-0.16638979984496513
-0.49690280671873666	-0.13274996157217284
-0.49684177156248666	-0.098429040302166
-0.49678073640623666	-0.06361793323539926
-0.49671970124998666	-0.02851026192388955
-0.49665866609373666	0.006698604615705889
-0.49659763093748666	0.04181298768995268
-0.49653659578123666	0.07663758236013958
-0.49647556062498666	0.11097861637876127
-0.49641452546873666	0.14464532546191602
-0.49635349031248666	0.17745051903470174
-0.49629245515623666	0.20921176945288808
-0.49623141999998666	0.23975269380940797
-0.49617038484373666	0.2689035878822036
-0.49610934968748666	0.2965025404930113
-0.49604831453123666	0.3223963846773718
-0.49598727937498666	0.3464414160651725
-0.49592624421873666	0.36850429614493896
-0.49586520906248666	0.38846279865298106
-0.49580417390623666	0.4062064688349105
-0.49574313874998666	0.42163719522630033
-0.49568210359373666	0.43466987202571256
-0.49562106843748666	0.4452328082784794
-0.49556003328123666	0.4532681019602388
-0.49549899812498666	0.45873205022757885
-0.49543796296873666	0.46159534427238086
-0.49537692781248666	0.4618432375643795
-0.49531589265623666	0.4594756439624496
-0.49525485749998666	0.454507156388693
-0.49519382234373666	0.4469669346690074
-0.49513278718748666	0.4368985725511447
-0.49507175203123666	0.42435986126162706
-0.49501071687498666	0.40942243587210414
-0.49494968171873666	0.3921714232593087
-0.49488864656248666	0.37270495187559105
-0.49482761140623666	0.35113356473648977
-0.49476657624998666	0.32757969079830146
-0.49470554109373666	0.3021768996180621
-0.49464450593748666	0.27506912978990455
-0.49458347078123666	0.24640996935691883
-0.49452243562498666	0.2163617706703218
-0.49446140046873666	0.1850946857775281
-0.49440036531248666	0.15278573077718544
-0.49433933015623666	0.11961792163459221
-0.49427829499998666	0.08577907186779342
-0.49421725984373666	0.051460779569871426
-0.49415622468748666	0.01685752942831917
-0.49409518953123666	-0.01783466618321815
-0.49403415437498666	-0.052419221293067184
-0.49397311921873666	-0.08669999891011312
-0.49391208406248666	-0.1204825914783051
-0.49385104890623666	-0.15357532205177182
-0.49379001374998666	-0.18579036268265797
-0.49372897859373666	-0.2169446434282253
-0.49366794343748666	-0.24686107321489753
-0.49360690828123666	-0.2753695534136156
-0.49354587312498666	-0.3023076705318175
-0.49348483796873666	-0.3275218808840773
-0.49342380281248666	-0.35086829890528004
-0.49336276765623666	-0.37221348081173583
-0.49330173249998666	-0.39143519163255597
-0.49324069734373666	-0.40842307124291904
-0.49317966218748666	-0.4230793697975468
-0.49311862703123666	-0.43531937418585637
-0.49305759187498666	-0.44507193491412106
-0.49299655671873666	-0.45227993766172514
-0.49293552156248666	-0.45690053783877776
-0.49287448640623666	-0.4589054516560605
-0.49281345124998666	-0.4582811493549075
-0.49275241609373666	-0.45502889713814815
-0.49269138093748666	-0.4491647799931855
-0.49263034578123666	-0.44071961372723095
-0.49256931062498666	-0.4297387915449743
-0.49250827546873666	-0.41628204499208676
-0.49244724031248666	-0.4004230598627893
-0.49238620515623666	-0.382249151934779
-0.49232516999998666	-0.3618607760103752
-0.49226413484373666	-0.33937084560873865
-0.49220309968748666	-0.3149042983793244
-0.49214206453123666	-0.2885972789648349
-0.49208102937498666	-0.26059636931492247
-0.49201999421873666	-0.23105788137485817
-0.49195895906248666	-0.2001468180719053
-0.49189792390623666	-0.16803617556950007
-0.49183688874998666	-0.13490574431168786
-0.49177585359373666	-0.1009411965273598
-0.49171481843748666	-0.06633319625530602
-0.49165378328123666	-0.03127603080115132
-0.49159274812498666	0.004033241476021987
-0.49153171296873666	0.03939595574117338
-0.49147067781248666	0.07461302525069542
-0.49140964265623666	0.1094859569232021
-0.49134860749998666	0.14381804720332492
-0.49128757234373666	0.1774154900673789
-0.49122653718748666	0.21008837334437253
-0.49116550203123666	0.24165183919641725
-0.49110446687498666	0.27192713105504274
-0.49104343171873666	0.3007425529663957
-0.49098239656248666	0.32793445933534116
-0.49092136140623666	0.35334815057586166
-0.49086032624998666	0.3768388409698052
-0.49079929109373666	0.39827240079190324
-0.49073825593748666	0.4175260915121241
-0.49067722078123666	0.4344893219250474
-0.49061618562498666	0.44906432957674247
-0.49055515046873666	0.46116661848649104
-0.49049411531248666	0.47072543215931756
-0.49043308015623666	0.477684354227593
-0.49037204499998666	0.48200145600317496
-0.49031100984373666	0.4836495445842383
-0.49024997468748666	0.48261643490621436
-0.49018893953123666	0.47890494924691773
-0.49012790437498666	0.4725329347891479
-0.49006686921873666	0.4635331473928212
-0.49000583406248666	0.4519531305542018
-0.48994479890623666	0.43785490764203494
-0.48988376374998666	0.4213146617466493
-0.48982272859373666	0.40242234132725235
-0.48976169343748666	0.3812810872524135
-0.48970065828123666	0.3580067876766155
-0.48963962312498666	0.33272730141041196
-0.48957858796873666	0.3055818168804066
-0.48951755281248666	0.2767200997588704
-0.48945651765623666	0.24630161223043145
-0.48939548249998666	0.2144946224378604
-0.48933444734373666	0.18147524126083533
-0.48927341218748666	0.14742661033506874
-0.48921237703123666	0.11253760263708007
-0.48915134187498666	0.0770018910405874
-0.48909030671873666	0.041017063301586415
-0.48902927156248666	0.004783147488615911
-0.48896823640623666	-0.03149835626358447
-0.48890720124998666	-0.06762540036617884
-0.48884616609373666	-0.10339683464156699
-0.48878513093748666	-0.1386134580797591
-0.48872409578123666	-0.17307895458120695
-0.48866306062498666	-0.2066012060418154
-0.48860202546873666	-0.23899335654357892
-0.48854099031248666	-0.27007471314228776
-0.48847995515623666	-0.2996719091091716
-0.48841891999998666	-0.3276198635072014
-0.48835788484373666	-0.3537626214780107
-0.48829684968748666	-0.3779543908424592
-0.48823581453123666	-0.4000601803005584
-0.48817477937498666	-0.41995669865010826
-0.48811374421873666	-0.4375330903240948
-0.48805270906248666	-0.4526913059850383
-0.48799167390623666	-0.46534701033244985
-0.48793063874998666	-0.47542987898192945
-0.48786960359373666	-0.48288386475979617
-0.48780856843748666	-0.4876678288134582
-0.48774753328123666	-0.4897555694437178
-0.48768649812498666	-0.48913596377568497
-0.48762546296873666	-0.4858131614524604
-0.48756442781248666	-0.4798064696980495
-0.48750339265623666	-0.4711502767371854
-0.48744235749998666	-0.4598938760813665
-0.48738132234373666	-0.44610115915466003
-0.48732028718748666	-0.42985030725672074
-0.48725925203123666	-0.41123332037754057
-0.48719821687498666	-0.39035549264725
-0.48713718171873666	-0.36733487299785506
-0.48707614656248666	-0.3423015555597565
-0.48701511140623666	-0.3153969714443149
-0.48695407624998666	-0.28677305716869994
-0.48689304109373666	-0.2565914786416543
-0.48683200593748666	-0.2250226795286419
-0.48677097078123666	-0.19224479967399613
-0.48670993562498666	-0.1584429356137203
-0.48664890046873666	-0.12380792609774975
-0.48658786531248666	-0.0885351323586353
-0.48652683015623666	-0.05282371187138177
-0.48646579499998666	-0.016875214896334728
-0.48640475984373666	0.0191076072332451
-0.48634372468748666	0.0549216243506807
-0.48628268953123666	0.09036485919458583
-0.48622165437498666	0.12523734045811943
-0.48616061921873666	0.15934234474504946
-0.48609958406248666	0.19248765359219458
-0.48603854890623666	0.22448624279263518
-0.48597751374998666	0.255157819693313
-0.48591647859373666	0.28432958382671286
-0.48585544343748666	0.3118371235197848
-0.48579440828123666	0.3375255903133131
-0.48573337312498666	0.361250440179734
-0.48567233796873666	0.382878261195358
-0.48561130281248666	0.4022875060892032
-0.48555026765623666	0.4193693109447767
-0.48548923249998666	0.43402796336237737
-0.48542819734373666	0.44618150247226107
-0.48536716218748666	0.45576227257646057
-0.48530612703123666	0.4627171583371848
-0.48524509187498666	0.46700799689229305
-0.48518405671873666	0.46861178783381324
-0.48512302156248666	0.4675207776139657
-0.48506198640623666	0.463742550950876
-0.48500095124998666	0.45729998722063153
-0.48493991609373666	0.4482311130077407
-0.48487888093748666	0.436588915208191
-0.48481784578123666	0.42244102835543795
-0.48475681062498666	0.40586935624294956
-0.48469577546873666	0.3869696316222244
-0.48463474031248666	0.3658508251097815
-0.48457370515623666	0.34263460813317886
-0.48451266999998666	0.3174545734079246
-0.48445163484373666	0.2904555671162272
-0.48439059968748666	0.26179280461294324
-0.48432956453123666	0.2316309886483797
-0.48426852937498666	0.20014350546411822
-0.48420749421873666	0.1675111680541222
-0.48414645906248666	0.133921513278392
-0.48408542390623666	0.0995675290283324
-0.48402438874998666	0.06464653025635844
-0.48396335359373666	0.02935926899650173
-0.48390231843748666	-0.006091491564119016
-0.48384128328123666	-0.04150191160252997
-0.48378024812498666	-0.07666840511730837
-0.48371921296873666	-0.11138864381570908
-0.48365817781248666	-0.14546277049390555
-0.48359714265623666	-0.17869467269359396
-0.48353610749998666	-0.21089286173313562
-0.48347507234373666	-0.2418717349519899
-0.48341403718748666	-0.27145252162669004
-0.48335300203123666	-0.29946454433455777
-0.48329196687498666	-0.3257458499846549
-0.48323093171873666	-0.3501442685950709
-0.48316989656248666	-0.3725186404546332
-0.48310886140623666	-0.39273892795394777
-0.48304782624998666	-0.4106875343887208
-0.48298679109373666	-0.4262599180327295
-0.48292575593748666	-0.43936477620163183
-0.48286472078123666	-0.4499251125469081
-0.48280368562498666	-0.4578783824172307
-0.48274265046873666	-0.4631768326712309
-0.48268161531248666	-0.4657879838653281
-0.48262058015623666	-0.46569463686797724
-0.48255954499998666	-0.4628950673585915
-0.48249850984373666	-0.4574030409440904
-0.48243747468748666	-0.44924771753579534
-0.48237643953123666	-0.43847351378765254
-0.48231540437498666	-0.42513985614428135
-0.48225436921873666	-0.40932084932231516
-0.48219333406248666	-0.39110486613567735
-0.48213229890623666	-0.37059402710301886
-0.48207126374998666	-0.3479036785541026
-0.48201022859373666	-0.32316172654421754
-0.48194919343748666	-0.29650782148919347
-0.48188815828123666	-0.26809274744695505
-0.48182712312498666	-0.23807743571131
-0.48176608796873666	-0.20663206478609794
-0.48170505281248666	-0.17393515726266415
-0.48164401765623666	-0.14017247806057495
-0.48158298249998666	-0.10553613124986816
-0.48152194734373666	-0.07022329887066597
-0.48146091218748666	-0.0344351209133834
-0.48139987703123666	0.001624222831050113
-0.48133884187498666	0.0377488743433584
-0.48127780671873666	0.07373256543890247
-0.48121677156248666	0.10936953030588005
-0.48115573640623666	0.14445573816687737
-0.48109470124998666	0.17879029650233183
-0.48103366609373666	0.21217640968233897
-0.48097263093748666	0.24442232928832683
-0.48091159578123666	0.27534282713940406
-0.48085056062498666	0.30476011188697
-0.48078952546873666	0.33250462306257783
-0.48072849031248666	0.35841633614272367
-0.48066745515623666	0.3823454933000303
-0.48060641999998666	0.40415351298850466
-0.48054538484373666	0.42371380775239104
-0.48048434968748666	0.4409124037539747
-0.48042331453123666	0.4556488119686816
-0.48036227937498666	0.4678364083213044
-0.48030124421873666	0.47740300207570224
-0.48024020906248666	0.48429132587067625
-0.48017917390623666	0.48845926682764973
-0.48011813874998666	0.4898802033788364
-0.48005710359373666	0.4885431035615833
-0.47999606843748666	0.48445264076289285
-0.47993503328123666	0.477629152918521
-0.47987399812498666	0.4681085572105456
-0.47981296296873666	0.455942154951553
-0.47975192781248666	0.4411962874899362
-0.47969089265623666	0.42395210253793336
-0.47962985749998666	0.4043049620378031
-0.47956882234373666	0.3823639436128504
-0.47950778718748666	0.35825133494263306
-0.47944675203123666	0.3321017832575617
-0.47938571687498666	0.30406161294294615
-0.47932468171873666	0.27428805463404343
-0.47926364656248666	0.2429482440105534
-0.47920261140623666	0.2102183054129595
-0.47914157624998666	0.17628248482784753
-0.47908054109373666	0.14133188680725936
-0.47901950593748666	0.10556347570102759
-0.47895847078123666	0.06917914560692297
-0.47889743562498666	0.032384219445557846
-0.47883640046873666	-0.004613489013050019
-0.47877536531248666	-0.04160479532133482
-0.47871433015623666	-0.0783806123187185
-0.47865329499998666	-0.11473287244968278
-0.47859225984373666	-0.1504558427352413
-0.47853122468748666	-0.1853472991337278
-0.47847018953123666	-0.21920963243856376
-0.47840915437498666	-0.2518510507773425
-0.47834811921873666	-0.2830865522564879
-0.47828708406248666	-0.3127391543600798
-0.47822604890623666	-0.3406407614167956
-0.47816501374998666	-0.36663320249839854
-0.47810397859373666	-0.3905691349510106
-0.47804294343748666	-0.4123128162045592
-0.47798190828123666	-0.43174102708919415
-0.47792087312498666	-0.44874364311705994
-0.47785983796873666	-0.4632243448593682
-0.47779880281248666	-0.4751011376818125
-0.47773776765623666	-0.4843068452447841
-0.47767673249998666	-0.4907895146926283
-0.47761569734373666	-0.49451267096617113
-0.47755466218748666	-0.49545557275945495
-0.47749362703123666	-0.49361332437969746
-0.47743259187498666	-0.48899691472904705
-0.47737155671873666	-0.48163314308510785
-0.47731052156248666	-0.47156449310151743
-0.47724948640623666	-0.4588488797836562
-0.47718845124998666	-0.4435593395465443
-0.47712741609373666	-0.42578359565324914
-0.47706638093748666	-0.4056235800630162
-0.47700534578123666	-0.38319485133153014
-0.47694431062498666	-0.3586259323573714
-0.47688327546873666	-0.3320575771233739
-0.47682224031248666	-0.30364197109799407
-0.47676120515623666	-0.27354189221497055
-0.47670016999998666	-0.24192969728509867
-0.47663913484373666	-0.20898647705671597
-0.47657809968748666	-0.17490086740458732
-0.47651706453123666	-0.13986803529600952
-0.47645602937498666	-0.10408870305198897
-0.47639499421873666	-0.0677676745693641
-0.47633395906248666	-0.031112948193689323
-0.47627292390623666	0.005665480255174172
-0.47621188874998666	0.04235708612900506
-0.47615085359373666	0.07875177383697336
-0.47608981843748666	0.11464106440250436
-0.47602878328123666	0.1498195287701673
-0.47596774812498666	0.18408576395319484
-0.47590671296873666	0.21724356506323958
-0.47584567781248666	0.24910319632480699
-0.47578464265623666	0.27948226372585017
-0.47572360749998666	0.30820700646169924
-0.47566257234373666	0.33511312467580606
-0.47560153718748666	0.36004670079794976
-0.47554050203123666	0.38286534111582343
-0.47547946687498666	0.4034386697818567
-0.47541843171873666	0.4216492476168798
-0.47535739656248666	0.43739335200728896
-0.47529636140623666	0.45058135424779594
-0.47523532624998666	0.46113833195693926
-0.47517429109373666	0.46900462292907613
-0.47511325593748666	0.4741360185834654
-0.47505222078123666	0.47650401437735007
-0.47499118562498666	0.47609613337304546
-0.47493015046873666	0.4729158711040099
-0.47486911531248666	0.46698269993051944
-0.47480808015623666	0.4583319978708495
-0.47474704499998666	0.4470148357521468
-0.47468600984373666	0.43309768092456347
-0.47462497468748666	0.4166619937814943
-0.47456393953123666	0.3978038471710251
-0.47450290437498666	0.376633277047945
-0.47444186921873666	0.35327367381074565
-0.47438083406248666	0.32786120736949464
-0.47431979890623666	0.30054381920451806
-0.47425876374998666	0.271480487538264
-0.47419772859373666	0.24084047384408985
-0.47413669343748666	0.20880200779462546
-0.47407565828123666	0.1755515063684486
-0.47401462312498666	0.14128253195828117
-0.47395358796873666	0.10619446115928034
-0.47389255281248666	0.07049151322279343
-0.47383151765623666	0.03438153552216384
-0.47377048249998666	-0.0019252233579483543
-0.47370944734373666	-0.038217328690933305
-0.47364841218748666	-0.07428334371891117
-0.47358737703123666	-0.10991310513176333
-0.47352634187498666	-0.14489887682137842
-0.47346530671873666	-0.17903654787119963
-0.47340427156248666	-0.21212698405543903
-0.47334323640623666	-0.24397693049999664
-0.47328220124998666	-0.27440019721173003
-0.47322116609373666	-0.30321895459200826
-0.47316013093748666	-0.33026451939858814
-0.47309909578123666	-0.35537834369570076
-0.47303806062498666	-0.3784131066924484
-0.47297702546873666	-0.39923350406128183
-0.47291599031248666	-0.4177168839994651
-0.47285495515623666	-0.43375415893008346
-0.47279391999998666	-0.447250448230495
-0.47273288484373666	-0.45812542141758356
-0.47267184968748666	-0.46631398371468447
-0.47261081453123666	-0.47176661339603493
-0.47254977937498666	-0.4744495827138801
-0.47248874421873666	-0.4743452347397066
-0.47242770906248666	-0.47145206126275346
-0.47236667390623666	-0.4657847518051611
-0.47230563874998666	-0.457374087157613
-0.47224460359373666	-0.4462667675887919
-0.47218356843748666	-0.4325252025258859
-0.47212253328123666	-0.4162270937343082
-0.47206149812498666	-0.39746502165149716
-0.47200046296873666	-0.3763459777568152
-0.47193942781248666	-0.35299060245148234
-0.47187839265623666	-0.3275326800635092
-0.47181735749998666	-0.300118262870509
-0.47175632234373666	-0.2709047794825705
-0.47169528718748666	-0.24006036453194599
-0.47163425203123666	-0.20776255931720253
-0.47157321687498666	-0.17419756715769308
-0.47151218171873666	-0.139559102083324
-0.47145114656248666	-0.10404711834800169
-0.47139011140623666	-0.06786695280508687
-0.47132907624998666	-0.03122785065188459
-0.47126804109373666	0.00565807331555709
-0.47120700593748666	0.042577079992849216
-0.47114597078123666	0.07931514229748435
-0.47108493562498666	0.11565904315214348
-0.47102390046873666	0.15139770560274834
-0.47096286531248666	0.18632338625600836
-0.47090183015623666	0.2202329233863436
-0.47084079499998666	0.25292879302627924
-0.47077975984373666	0.2842203808841154
-0.47071872468748666	0.31392514418433615
-0.47065768953123666	0.3418693799991302
-0.47059665437498666	0.36788961959254984
-0.47053561921873666	0.39183335589816976
-0.47047458406248666	0.4135598368531366
-0.47041354890623666	0.432941290010009
