Time	Frequency
-0.500007655718747	0.43465211465320547
-0.49994662056249695	0.4461683857336773
-0.49988558540624695	0.4551692051933116
-0.49982455024999695	0.46160215952407985
-0.49976351509374695	0.46542928023606694
-0.49970247993749695	0.466627234963863
-0.49964144478124695	0.465187453550152
-0.49958040962499695	0.46111624038628934
-0.49951937446874695	0.45443471518450024
-0.49945833931249695	0.44517869302665813
-0.49939730415624695	0.43339851425178133
-0.49933626899999695	0.41915872595282744
-0.49927523384374695	0.4025378303461082
-0.49921419868749695	0.383627716743493
-0.49915316353124695	0.3625331954323537
-0.49909212837499695	0.3393715359082242
-0.49903109321874695	0.31427164159048093
-0.49897005806249695	0.28737336750249265
-0.49890902290624695	0.25882686151616047
-0.49884798774999695	0.22879161595574488
-0.49878695259374695	0.19743555640459398
-0.49872591743749695	0.16493416908160757
-0.49866488228124695	0.1314695061334988
-0.49860384712499695	0.09722917029701593
-0.49854281196874695	0.06240516086560059
-0.49848177681249695	0.027192966057749318
-0.49842074165624695	-0.008209655153133903
-0.49835970649999695	-0.043603779239865886
-0.49829867134374695	-0.0787903306241419
-0.49823763618749695	-0.11357141487884133
-0.49817660103124695	-0.14775115482403942
-0.49811556587499695	-0.1811370138204171
-0.49805453071874695	-0.213540870490003
-0.49799349556249695	-0.2447798218523858
-0.49793246040624695	-0.27467763780302157
-0.49787142524999695	-0.3030654435111006
-0.49781039009374695	-0.32978260845680746
-0.49774935493749695	-0.3546780956779593
-0.49768831978124695	-0.377610844456515
-0.49762728462499695	-0.3984507133638686
-0.49756624946874695	-0.4170794456156189
-0.49750521431249695	-0.4333909899904415
-0.49744417915624695	-0.4472923496590546
-0.49738314399999695	-0.45870404089115535
-0.49732210884374695	-0.46756048805968803
-0.49726107368749695	-0.47381051866201196
-0.49720003853124695	-0.4774175587352269
-0.49713900337499695	-0.47835988985345773
-0.49707796821874695	-0.4766307730045592
-0.49701693306249695	-0.4722385123703989
-0.49695589790624695	-0.46520637212234095
-0.49689486274999695	-0.45557248984180787
-0.49683382759374695	-0.443389677969211
-0.49677279243749695	-0.4287250761354223
-0.49671175728124695	-0.4116598599530528
-0.49665072212499695	-0.3922887310200965
-0.49658968696874695	-0.37071939094463263
-0.49652865181249695	-0.34707199997392035
-0.49646761665624695	-0.32147843281342253
-0.49640658149999695	-0.2940815750006397
-0.49634554634374695	-0.26503455055662295
-0.49628451118749695	-0.2344997836997098
-0.49622347603124695	-0.20264818503939183
-0.49616244087499695	-0.16965811422134802
-0.49610140571874695	-0.13571442299312905
-0.49604037056249695	-0.10100742545337818
-0.49597933540624695	-0.06573169534225705
-0.49591830024999695	-0.030085242886466527
-0.49585726509374695	0.005731874971626542
-0.49579622993749695	0.04151859336857688
-0.49573519478124695	0.0770738623607214
-0.49567415962499695	0.1121979329100708
-0.49561312446874695	0.14669336781836229
-0.49555208931249695	0.18036636151889304
-0.49549105415624695	0.21302747917223075
-0.49543001899999695	0.24449302375234527
-0.49536898384374695	0.2745861076222635
-0.49530794868749695	0.3031373097378169
-0.49524691353124695	0.32998601867667343
-0.49518587837499695	0.35498115972665123
-0.49512484321874695	0.37798201320484276
-0.49506380806249695	0.3988591213268156
-0.49500277290624695	0.41749498598971024
-0.49494173774999695	0.4337847318312582
-0.49488070259374695	0.44763666082094267
-0.49481966743749695	0.4589728324371486
-0.49475863228124695	0.467729537838139
-0.49469759712499695	0.4738575728778952
-0.49463656196874695	0.4773225707568342
-0.49457552681249695	0.47810522704497155
-0.49451449165624695	0.4762013712286207
-0.49445345649999695	0.47162202527127417
-0.49439242134374695	0.46439331344906265
-0.49433138618749695	0.45455635406094114
-0.49427035103124695	0.4421670432035582
-0.49420931587499695	0.42729565801770164
-0.49414828071874695	0.41002658368116823
-0.49408724556249695	0.3904577887742524
-0.49402621040624695	0.3687001780281185
-0.49396517524999695	0.344877184966497
-0.49390414009374695	0.31912387821398924
-0.49384310493749695	0.29158626633130097
-0.49378206978124695	0.2624205394367469
-0.49372103462499695	0.23179206544366757
-0.49365999946874695	0.19987459761108672
-0.49359896431249695	0.16684913841604912
-0.49353792915624695	0.13290303444480428
-0.49347689399999695	0.09822891545263457
-0.49341585884374695	0.06302345740124174
-0.49335482368749695	0.02748650088711659
-0.49329378853124695	-0.008180266681319739
-0.49323275337499695	-0.04377446151100599
-0.49317171821874695	-0.07909391780378604
-0.49311068306249695	-0.11393811767097194
-0.49304964790624695	-0.14810925355217533
-0.49298861274999695	-0.18141318601292006
-0.49292757759374695	-0.2136607147567313
-0.49286654243749695	-0.24466867755130495
-0.49280550728124695	-0.2742609024067605
-0.49274447212499695	-0.30226912911473874
-0.49268343696874695	-0.32853419944046336
-0.49262240181249695	-0.35290686175507036
-0.49256136665624695	-0.37524842211878406
-0.49250033149999695	-0.3954318883554681
-0.49243929634374695	-0.4133425076071739
-0.49237826118749695	-0.42887831274484856
-0.49231722603124695	-0.4419509421372327
-0.49225619087499695	-0.45248604635160694
-0.49219515571874695	-0.46042363005890796
-0.49213412056249695	-0.4657185123953661
-0.49207308540624695	-0.4683406025197305
-0.49201205024999695	-0.46827494008266535
-0.49195101509374695	-0.4655219347469862
-0.49188997993749695	-0.46009730144080385
-0.49182894478124695	-0.45203196310359967
-0.49176790962499695	-0.4413719284086976
-0.49170687446874695	-0.42817798579189587
-0.49164583931249695	-0.41252542289791083
-0.49158480415624695	-0.39450353085849743
-0.49152376899999695	-0.3742151661420208
-0.49146273384374695	-0.3517761476355536
-0.49140169868749695	-0.32731456634813655
-0.49134066353124695	-0.3009701427785275
-0.49127962837499695	-0.27289335260206415
-0.49121859321874695	-0.24324462260421476
-0.49115755806249695	-0.2121934128730579
-0.49109652290624695	-0.17991721544591208
-0.49103548774999695	-0.1466006464783483
-0.49097445259374695	-0.11243427124439538
-0.49091341743749695	-0.07761359735485242
-0.49085238228124695	-0.04233797606395099
-0.49079134712499695	-0.00680937657670142
-0.49073031196874695	0.02876864767112781
-0.49066927681249695	0.06419216831715428
-0.49060824165624695	0.09925815870134576
-0.49054720649999695	0.13376541127562946
-0.49048617134374695	0.16751583115048718
-0.49042513618749695	0.20031574627240936
-0.49036410103124695	0.23197656868709696
-0.49030306587499695	0.26231625560970023
-0.49024203071874695	0.2911602862261642
-0.49018099556249695	0.3183424703385358
-0.49011996040624695	0.34370614301219277
-0.49005892524999695	0.36710486327702335
-0.48999789009374695	0.3884034630062568
-0.48993685493749695	0.4074786070383762
-0.48987581978124695	0.4242195841131774
-0.48981478462499695	0.4385291318046294
-0.48975374946874695	0.45032366291334863
-0.48969271431249695	0.45953396545174563
-0.48963167915624695	0.46610564386450654
-0.48957064399999695	0.46999926248960033
-0.48950960884374695	0.47119070405215224
-0.48944857368749695	0.46967131743352375
-0.48938753853124695	0.46544790315674966
-0.48932650337499695	0.4585427503841231
-0.48926546821874695	0.4489934884025073
-0.48920443306249695	0.4368528767309449
-0.48914339790624695	0.4221885504004582
-0.48908236274999695	0.40508258317878276
-0.48902132759374695	0.3856310599743515
-0.48896029243749695	0.36394358291325496
-0.48889925728124695	0.3401425591955634
-0.48883822212499695	0.314362518590593
-0.48877718696874695	0.2867495220441177
-0.48871615181249695	0.25746009741739945
-0.48865511665624695	0.22666040081354183
-0.48859408149999695	0.19452552316681368
-0.48853304634374695	0.16123813257512373
-0.48847201118749695	0.126987622067366
-0.48841097603124695	0.09196911286893503
-0.48834994087499695	0.05638213653985328
-0.48828890571874695	0.020429668624530464
-0.48822787056249695	-0.01568314727341181
-0.48816683540624695	-0.051750051389925465
-0.48810580024999695	-0.08756493247268826
-0.48804476509374695	-0.12292308616583277
-0.48798372993749695	-0.1576220767444074
-0.48792269478124695	-0.19146326464880542
-0.48786165962499695	-0.22425280160871916
-0.48780062446874695	-0.2558025416624725
-0.48773958931249695	-0.28593150389462874
-0.48767855415624695	-0.3144665885649243
-0.48761751899999695	-0.3412436950623975
-0.48755648384374695	-0.3661087471057479
-0.48749544868749695	-0.3889183505451737
-0.48743441353124695	-0.40954089875928823
-0.48737337837499695	-0.42785715334522945
-0.48731234321874695	-0.44376086735311765
-0.48725130806249695	-0.45715967590449486
-0.48719027290624695	-0.4679754021216208
-0.48712923774999695	-0.47614447677575367
-0.48706820259374695	-0.4816185447781519
-0.48700716743749695	-0.484364562535839
-0.48694613228124695	-0.4843650148628785
-0.48688509712499695	-0.48161808989304294
-0.48682406196874695	-0.47613766426841064
-0.48676302681249695	-0.4679532279142359
-0.48670199165624695	-0.4571097082897884
-0.48664095649999695	-0.4436672834105313
-0.48657992134374695	-0.4277009649968081
-0.48651888618749695	-0.40930024252510644
-0.48645785103124695	-0.38856855953984
-0.48639681587499695	-0.36562269050710994
-0.48633578071874695	-0.3405921567690182
-0.48627474556249695	-0.3136184387347658
-0.48621371040624695	-0.2848541466396864
-0.48615267524999695	-0.2544622413682879
-0.48609164009374695	-0.22261506508027662
-0.48603060493749695	-0.18949324695024683
-0.48596956978124695	-0.15528493669770205
-0.48590853462499695	-0.12018447508891414
-0.48584749946874695	-0.08439134488758585
-0.48578646431249695	-0.048109213175602725
-0.48572542915624695	-0.01154447942289963
-0.48566439399999695	0.025094679407173488
-0.48560335884374695	0.061599610888875195
-0.48554232368749695	0.09776229620651503
-0.48548128853124695	0.13337667281108678
-0.48542025337499695	0.16823972542712795
-0.48535921821874695	0.20215256129582695
-0.48529818306249695	0.2349217985038139
-0.48523714790624695	0.2663604187471403
-0.48517611274999695	0.2962889995542792
-0.48511507759374695	0.32453671240233956
-0.48505404243749695	0.35094223082661885
-0.48499300728124695	0.37535478052017646
-0.48493197212499695	0.3976349224064349
-0.48487093696874695	0.4176553379869646
-0.48480990181249695	0.43530169339498154
-0.48474886665624695	0.4504731666759425
-0.48468783149999695	0.46308301202979
-0.48462679634374695	0.47305924967411117
-0.48456576118749695	0.48034489964658506
-0.48450472603124695	0.4848983428589454
-0.48444369087499695	0.4866936659402887
-0.48438265571874695	0.48572072231350044
-0.48432162056249695	0.48198520826559554
-0.48426058540624695	0.4755086734006304
-0.48419955024999695	0.46632838331585075
-0.48413851509374695	0.45449708128836136
-0.48407747993749695	0.4400827548184837
-0.48401644478124695	0.42316819931329425
-0.48395540962499695	0.40385055227971384
-0.48389437446874695	0.382240757896161
-0.48383333931249695	0.3584629686311067
-0.48377230415624695	0.33265374164406064
-0.48371126899999695	0.30496129387451054
-0.48365023384374695	0.2755448050184429
-0.48358919868749695	0.24457323560566163
-0.48352816353124695	0.21222452111080262
-0.48346712837499695	0.17868461758775173
-0.48340609321874695	0.14414628451115077
-0.48334505806249695	0.1088080271137367
-0.48328402290624695	0.07287299477638257
-0.48322298774999695	0.036547806447808036
-0.48316195259374695	4.137008865788511e-05
-0.48310091743749695	-0.03643643853907578
-0.48303988228124695	-0.07267581587581956
-0.48297884712499695	-0.10846822216816995
-0.48291781196874695	-0.14360786547016957
-0.48285677681249695	-0.17789252306178138
-0.48279574165624695	-0.2111249310126869
-0.48273470649999695	-0.24311385657259546
-0.48267367134374695	-0.27367522354463625
-0.48261263618749695	-0.3026331788740479
-0.48255160103124695	-0.32982094407941276
-0.48249056587499695	-0.3550821653152777
-0.48242953071874695	-0.3782713977322542
-0.48236849556249695	-0.39925512475248903
-0.48230746040624695	-0.4179126704713752
-0.48224642524999695	-0.4341366315056527
-0.48218539009374695	-0.44783366613326203
-0.48212435493749695	-0.45892504352482166
-0.48206331978124695	-0.467347027428372
-0.48200228462499695	-0.47305126567114403
-0.48194124946874695	-0.47600513891861157
-0.48188021431249695	-0.476191885868653
-0.48181917915624695	-0.4736107206018273
-0.48175814399999695	-0.4682768614826663
-0.48169710884374695	-0.4602214388329874
-0.48163607368749695	-0.4494913103677385
-0.48157503853124695	-0.4361488260067474
-0.48151400337499695	-0.4202714267546679
-0.48145296821874695	-0.4019512498464954
-0.48139193306249695	-0.38129459292285844
-0.48133089790624695	-0.3584212494728881
-0.48126986274999695	-0.33346393100587934
-0.48120882759374695	-0.3065673881473424
-0.48114779243749695	-0.27788765983607905
-0.48108675728124695	-0.2475911432052226
-0.48102572212499695	-0.2158536434791293
-0.48096468696874695	-0.18285936694400143
-0.48090365181249695	-0.14879980496535564
-0.48084261665624695	-0.11387275403634702
-0.48078158149999695	-0.0782810526986853
-0.48072054634374695	-0.04223142464253005
-0.48065951118749695	-0.005933367031629103
-0.48059847603124695	0.030402092669655753
-0.48053744087499695	0.0665637342111205
-0.48047640571874695	0.10234118058595046
-0.48041537056249695	0.13752625010616995
-0.48035433540624695	0.17191406664599373
-0.48029330024999695	0.20530432291268122
-0.48023226509374695	0.2375025568265233
-0.48017122993749695	0.26832080747226716
-0.48011019478124695	0.29757933588171187
-0.48004915962499695	0.32510736502553955
-0.47998812446874695	0.35074381254613873
-0.47992708931249695	0.3743387866149371
-0.47986605415624695	0.3957540625840042
-0.47980501899999695	0.41486392575075115
-0.47974398384374695	0.4315560971578503
-0.47968294868749695	0.44573220575058575
-0.47962191353124695	0.45730841210958795
-0.47956087837499695	0.4662159973310032
-0.47949984321874695	0.47240160859968655
-0.47943880806249695	0.47582769348561105
-0.47937777290624695	0.47647272803123875
-0.47931673774999695	0.4743312479784393
-0.47925570259374695	0.4694140098507681
-0.47919466743749695	0.46174785787385564
-0.47913363228124695	0.4513756201621934
-0.47907259712499695	0.4383558419994431
-0.47901156196874695	0.42276245792292216
-0.47895052681249695	0.4046844213549635
-0.47888949165624695	0.3842251085131512
-0.47882845649999695	0.3615017903305024
-0.47876742134374695	0.33664499945237236
-0.47870638618749695	0.3097976299920589
-0.47864535103124695	0.28111429043800484
-0.47858431587499695	0.25076036315041533
-0.47852328071874695	0.21891088504374417
-0.47846224556249695	0.18574987850039654
-0.47840121040624695	0.15146897827214395
-0.47834017524999695	0.11626637004120163
-0.47827914009374695	0.08034592042639296
-0.47821810493749695	0.04391561479269022
-0.47815706978124695	0.007186588425835784
-0.47809603462499695	-0.02962814707634904
-0.47803499946874695	-0.06631494163959933
-0.47797396431249695	-0.10266071165431055
-0.47791292915624695	-0.1384543407813537
-0.47785189399999695	-0.17348761197483334
-0.47779085884374695	-0.20755668984816006
-0.47772982368749695	-0.24046314599996513
-0.47766878853124695	-0.2720151657061273
-0.47760775337499695	-0.302028761343277
-0.47754671821874695	-0.33032856712689773
-0.47748568306249695	-0.3567491620977764
-0.47742464790624695	-0.38113593214082814
-0.47736361274999695	-0.4033458904986247
-0.47730257759374695	-0.42324855361764036
-0.47724154243749695	-0.4407268387735233
-0.47718050728124695	-0.4556776126434829
-0.47711947212499695	-0.4680122046404418
-0.47705843696874695	-0.47765723304458335
-0.47699740181249695	-0.48455478645374256
-0.47693636665624695	-0.48866279311142374
-0.47687533149999695	-0.4899554291142344
-0.47681429634374695	-0.48842310566171454
-0.47675326118749695	-0.484072620212933
-0.47669222603124695	-0.47692713464430847
-0.47663119087499695	-0.46702599851705084
-0.47657015571874695	-0.45442457753097315
-0.47650912056249695	-0.43919392417971365
-0.47644808540624695	-0.42142035756011675
-0.47638705024999695	-0.40120501849161233
-0.47632601509374695	-0.3786632318032889
-0.47626497993749695	-0.3539238959991493
-0.47620394478124695	-0.32712871436704327
-0.47614290962499695	-0.29843134415185474
-0.47608187446874695	-0.2679967000910256
-0.47602083931249695	-0.23599966131781105
-0.47595980415624695	-0.20262432534873442
-0.47589876899999695	-0.16806306255870135
-0.47583773384374695	-0.13251489440171751
-0.47577669868749695	-0.09618488150156033
-0.47571566353124695	-0.05928274504409926
-0.47565462837499695	-0.022021439591191044
-0.47559359321874695	0.015383689537891982
-0.47553255806249695	0.052716512130268185
-0.47547152290624695	0.08976114590346898
-0.47541048774999695	0.12630323534631385
-0.47534945259374695	0.16213139361199722
-0.47528841743749695	0.19703811209715452
-0.47522738228124695	0.23082125248118737
-0.47516634712499695	0.26328509354584545
-0.47510531196874695	0.2942414028263895
-0.47504427681249695	0.32351074545649666
-0.47498324165624695	0.35092332501899315
-0.47492220649999695	0.37632007800738027
-0.47486117134374695	0.3995535690564625
-0.47480013618749695	0.4204888895628168
-0.47473910103124695	0.4390044268422448
-0.47467806587499695	0.45499252217868935
-0.47461703071874695	0.4683602362197685
-0.47455599556249695	0.4790297498373717
-0.47449496040624695	0.486938926262962
-0.47443392524999695	0.4920416496607913
-0.47437289009374695	0.4943080533140005
-0.47431185493749695	0.4937247919227102
-0.47425081978124695	0.49029505152623165
-0.47418978462499695	0.48403856400038753
-0.47412874946874695	0.4749915002886908
-0.47406771431249695	0.4632062755889901
-0.47400667915624695	0.4487512316943979
-0.47394564399999695	0.431710244658426
-0.47388460884374695	0.41218228352089664
-0.47382357368749695	0.39028078559293616
-0.47376253853124695	0.3661330062196432
-0.47370150337499695	0.3398793647384158
-0.47364046821874695	0.31167251653313666
-0.47357943306249695	0.2816765058857319
-0.47351839790624695	0.250065911737082
-0.47345736274999695	0.2170246489647003
-0.47339632759374695	0.1827450766262408
-0.47333529243749695	0.14742679234914358
-0.47327425728124695	0.11127538920669548
-0.47321322212499695	0.07450154304060132
-0.47315218696874695	0.03731944250474864
-0.47309115181249695	-5.433435374592143e-05
-0.47303011665624695	-0.037401867712683605
-0.47296908149999695	-0.07450552593952416
-0.47290804634374695	-0.1111490599793805
-0.47284701118749695	-0.14711874725737545
-0.47278597603124695	-0.1822048564153422
-0.47272494087499695	-0.2162028166969164
-0.47266390571874695	-0.24891430533374784
-0.47260287056249695	-0.2801484656712326
-0.47254183540624695	-0.30972315297090564
-0.47248080024999695	-0.33746582250679436
-0.47241976509374695	-0.3632145490190576
-0.47235872993749695	-0.3868191945812349
-0.47229769478124695	-0.40814202365874186
-0.47223665962499695	-0.4270585915657402
-0.47217562446874695	-0.44345863798385676
-0.47211458931249695	-0.457246548441727
-0.47205355415624695	-0.46834191643337597
-0.47199251899999695	-0.47668017007002716
-0.47193148384374695	-0.482212885038491
-0.47187044868749695	-0.48490795883339166
-0.47180941353124695	-0.48474997273653264
-0.47174837837499695	-0.4817402446747547
-0.47168734321874695	-0.4758967478185359
-0.47162630806249695	-0.4672540786826468
-0.47156527290624695	-0.45586329071047604
-0.47150423774999695	-0.44179151523563737
-0.47144320259374695	-0.42512163152689664
-0.47138216743749695	-0.40595180415760246
-0.47132113228124695	-0.38439483797648255
-0.47126009712499695	-0.3605776127089111
-0.47119906196874695	-0.33464027757333265
-0.47113802681249695	-0.30673546221673825
-0.47107699165624695	-0.2770274127087231
-0.47101595649999695	-0.24569093918341608
-0.47095492134374695	-0.21291051574668493
-0.47089388618749695	-0.17887919260425855
-0.47083285103124695	-0.14379725778255018
-0.47077181587499695	-0.10787136926362674
-0.47071078071874695	-0.07131324954471122
-0.47064974556249695	-0.03433815770010383
-0.47058871040624695	0.002835866857978814
-0.47052767524999695	0.03998961867203918
-0.47046664009374695	0.07690414888592893
-0.47040560493749695	0.11336149436537925
