Time	Frequency
-0.5000159741249988	1.5853647610757458e-24
-0.49995493896874876	1.56533186351773e-24
-0.49989390381249876	1.5407533319012057e-24
-0.49983286865624876	1.5116951766752028e-24
-0.49977183349999876	1.4782361267345835e-24
-0.49971079834374876	1.4404673148838191e-24
-0.49964976318749876	1.3984922168327343e-24
-0.49958872803124876	1.352426118199297e-24
-0.49952769287499876	1.3023960429083516e-24
-0.49946665771874876	1.2485402454976511e-24
-0.49940562256249876	1.1910077878075377e-24
-0.49934458740624876	1.129958413457467e-24
-0.49928355224999876	1.0655616539563739e-24
-0.49922251709374876	9.979967516182358e-25
-0.49916148193749876	9.27452048471441e-25
-0.49910044678124876	8.541242064907047e-25
-0.49903941162499876	7.782181374372702e-25
-0.49897837646874876	6.999460017455862e-25
-0.49891734131249876	6.195267284532289e-25
-0.49885630615624876	5.371857281476093e-25
-0.49879527099999876	4.531536290891514e-25
-0.49873423584374876	3.6766615973619363e-25
-0.49867320068749876	2.809634710019616e-25
-0.49861216553124876	1.932889060331528e-25
-0.49855113037499876	1.0488912370029105e-25
-0.49849009521874876	1.6012744305464125e-26
-0.49842906006249876	-7.309009848863468e-26
-0.49836802490624876	-1.6216819181557347e-25
-0.49830698974999876	-2.5097068705812617e-25
-0.49824595459374876	-3.392469182353171e-25
-0.49818491943749876	-4.267476594341795e-25
-0.49812388428124876	-5.132259663073095e-25
-0.49806284912499876	-5.984371695084253e-25
-0.49800181396874876	-6.821403060314152e-25
-0.49794077881249876	-7.640985281640059e-25
-0.49787974365624876	-8.44079467483008e-25
-0.49781870849999876	-9.218565101755547e-25
-0.49775767334374876	-9.97208893951794e-25
-0.49769663818749876	-1.069922570610685e-24
-0.49763560303124876	-1.1397909381131316e-24
-0.49757456787499876	-1.2066149861206804e-24
-0.49751353271874876	-1.2702045122656148e-24
-0.49745249756249876	-1.330378026671611e-24
-0.49739146240624876	-1.386963567577338e-24
-0.49733042724999876	-1.4397994665161717e-24
-0.49726939209374876	-1.4887340807558765e-24
-0.49720835693749876	-1.5336269614021273e-24
-0.49714732178124876	-1.5743489468050318e-24
-0.49708628662499876	-1.610782340479277e-24
-0.49702525146874876	-1.6428216588447446e-24
-0.49696421631249876	-1.6703736674306773e-24
-0.49690318115624876	-1.693357660132248e-24
-0.49684214599999876	-1.7117057901299488e-24
-0.49678111084374876	-1.725363272627932e-24
-0.49672007568749876	-1.7342883939839006e-24
-0.49665904053124876	-1.738452812397854e-24
-0.49659800537499876	-1.7378416015320214e-24
-0.49653697021874876	-1.7324531765740327e-24
-0.49647593506249876	-1.7222994928342163e-24
-0.49641489990624876	-1.7074059038903947e-24
-0.49635386474999876	-1.6878110876318863e-24
-0.49629282959374876	-1.66356703067988e-24
-0.49623179443749876	-1.6347388137367836e-24
-0.49617075928124876	-1.6014044358536017e-24
-0.49610972412499876	-1.5636546747755315e-24
-0.49604868896874876	-1.5215927406384415e-24
-0.49598765381249876	-1.4753340503847555e-24
-0.49592661865624876	-1.4250059058450659e-24
-0.49586558349999876	-1.3707471124469287e-24
-0.49580454834374876	-1.3127075846466166e-24
-0.49574351318749876	-1.2510480426630139e-24
-0.49568247803124876	-1.1859393593985093e-24
-0.49562144287499876	-1.1175622232239619e-24
-0.49556040771874876	-1.0461067132650365e-24
-0.49549937256249876	-9.717714858704677e-25
-0.49543833740624876	-8.947635117832052e-25
-0.49537730224999876	-8.152973291709768e-25
-0.49531626709374876	-7.335945231496594e-25
-0.49525523193749876	-6.498829465914496e-25
-0.49519419678124876	-5.643963815545538e-25
-0.49513316162499876	-4.773735654763287e-25
-0.49507212646874876	-3.890575710498042e-25
-0.49501109131249876	-2.996955125841542e-25
-0.49495005615624876	-2.095371174098714e-25
-0.49488902099999876	-1.1883475127077868e-25
-0.49482798584374876	-2.7842330086805594e-26
-0.49476695068749876	6.318553693549827e-26
-0.49470591553124876	1.539937625774254e-25
-0.49464488037499876	2.443280203013295e-25
-0.49458384521874876	3.3393521595797338e-25
-0.49452281006249876	4.225641606254028e-25
-0.49446177490624876	5.0996644824533e-25
-0.49440073974999876	5.95897037324813e-25
-0.49433970459374876	6.801150087603892e-25
-0.49427866943749876	7.6238418568794795e-25
-0.49421763428124876	8.424738707653146e-25
-0.49415659912499876	9.201594911253495e-25
-0.49409556396874876	9.952231837831603e-25
-0.49403452881249876	1.0674544941804337e-24
-0.49397349365624876	1.1366508681804729e-24
-0.49391245849999876	1.2026184166516882e-24
-0.49385142334374876	1.2651722125249202e-24
-0.49379038818749876	1.3241369994252773e-24
-0.49372935303124876	1.3793477900972696e-24
-0.49366831787499876	1.430649918594149e-24
-0.49360728271874876	1.4778999605488167e-24
-0.49354624756249876	1.5209659885768896e-24
-0.49348521240624876	1.5597276780344654e-24
-0.49342417724999876	1.5940770966017367e-24
-0.49336314209374876	1.6239187531218822e-24
-0.49330210693749876	1.6491698006076365e-24
-0.49324107178124876	1.6697605761499206e-24
-0.49318003662499876	1.6856344921205335e-24
-0.49311900146874876	1.6967483763594215e-24
-0.49305796631249876	1.703072601484188e-24
-0.49299693115624876	1.704591040952078e-24
-0.49293589599999876	1.7013012935452067e-24
-0.49287486084374876	1.6932145727379396e-24
-0.49281382568749876	1.6803557050809586e-24
-0.49275279053124876	1.6627631186214212e-24
-0.49269175537499876	1.6404886694048383e-24
-0.49263072021874876	1.6135975214087337e-24
-0.49256968506249876	1.5821680157401517e-24
-0.49250864990624876	1.5462913530500977e-24
-0.49244761474999876	1.506071438866197e-24
-0.49238657959374876	1.4616245384539394e-24
-0.49232554443749876	1.4130789447411868e-24
-0.49226450928124876	1.3605746670067132e-24
-0.49220347412499876	1.3042629577347773e-24
-0.49214243896874876	1.244305988317847e-24
-0.49208140381249876	1.1808762987425018e-24
-0.49202036865624876	1.1141563413700894e-24
-0.49195933349999876	1.044338011054675e-24
-0.49189829834374876	9.716220473961157e-25
-0.49183726318749876	8.962174114086576e-25
-0.49177622803124876	8.183408774095085e-25
-0.49171519287499876	7.382162621015878e-25
-0.49165415771874876	6.5607371319878e-25
-0.49159312256249876	5.721494219790127e-25
-0.49153208740624876	4.866844415721691e-25
-0.49147105224999876	3.9992439558103777e-25
-0.49141001709374876	3.1211872691924995e-25
-0.49134898193749876	2.235196185516643e-25
-0.49128794678124876	1.3438192209824352e-25
-0.49122691162499876	4.496187848845417e-26
-0.49116587646874876	-4.4483492980238644e-26
-0.49110484131249876	-1.3369686837550305e-25
-0.49104380615624876	-2.2242160631243253e-25
-0.49098277099999876	-3.1040249171799135e-25
-0.49092173584374876	-3.973863319933412e-25
-0.49086070068749876	-4.831226251967641e-25
-0.49079966553124876	-5.673646013361297e-25
-0.49073863037499876	-6.498695889779902e-25
-0.49067759521874876	-7.303997513820495e-25
-0.49061656006249876	-8.087231009947921e-25
-0.49055552490624876	-8.846136648612683e-25
-0.49049448974999876	-9.578525129696308e-25
-0.49043345459374876	-1.0282282862240032e-24
-0.49037241943749876	-1.0955376172247838e-24
-0.49031138428124876	-1.1595861242949285e-24
-0.49025034912499876	-1.2201884536073775e-24
-0.49018931396874876	-1.27716930958244e-24
-0.49012827881249876	-1.3303636001327066e-24
-0.49006724365624876	-1.3796170321353917e-24
-0.49000620849999876	-1.424786724659383e-24
-0.48994517334374876	-1.4657412767305843e-24
-0.48988413818749876	-1.50236150132375e-24
-0.48982310303124876	-1.5345404885811415e-24
-0.48976206787499876	-1.5621841604675304e-24
-0.48970103271874876	-1.5852113265039772e-24
-0.48963999756249876	-1.603554063344531e-24
-0.48957896240624876	-1.6171579373552156e-24
-0.48951792724999876	-1.6259819750233762e-24
-0.48945689209374876	-1.6299990376323451e-24
-0.48939585693749876	-1.629195741965442e-24
-0.48933482178124876	-1.6235725130202907e-24
-0.48927378662499876	-1.6131436932531144e-24
-0.48921275146874876	-1.5979374040546623e-24
-0.48915171631249876	-1.5779954991495473e-24
-0.48909068115624876	-1.5533734937347629e-24
-0.48902964599999876	-1.524140352603481e-24
-0.48896861084374876	-1.4903783561722408e-24
-0.48890757568749876	-1.4521827967498292e-24
-0.48884654053124876	-1.4096618214394836e-24
-0.48878550537499876	-1.3629360157762061e-24
-0.48872447021874876	-1.3121381048158744e-24
-0.48866343506249876	-1.2574126744437868e-24
-0.48860239990624876	-1.1989155553874407e-24
-0.48854136474999876	-1.1368136031655614e-24
-0.48848032959374876	-1.0712840921062852e-24
-0.48841929443749876	-1.002514216220336e-24
-0.48835825928124876	-9.307006646138852e-25
-0.48829722412499876	-8.560488822447463e-25
-0.48823618896874876	-7.787727155462091e-25
-0.48817515381249876	-6.990935737678259e-25
-0.48811411865624876	-6.172399390601269e-25
-0.48805308349999876	-5.334467216541628e-25
-0.48799204834374876	-4.479544478236903e-25
-0.48793101318749876	-3.61008788647072e-25
-0.48786997803124876	-2.7285966793901784e-25
-0.48780894287499876	-1.8376061201987482e-25
-0.48774790771874876	-9.396809339871489e-26
-0.48768687256249876	-3.740706471055066e-27
-0.48762583740624876	8.666159623105256e-26
-0.48756480224999876	1.769780599408881e-25
-0.48750376709374876	2.6694818375308725e-25
-0.48744273193749876	3.563121568758287e-25
-0.48738169678124876	4.4481180516030035e-25
-0.48732066162499876	5.321913046816215e-25
-0.48725962646874876	6.181977229319298e-25
-0.48719859131249876	7.025822329837087e-25
-0.48713755615624876	7.851000948916289e-25
-0.48707652099999876	8.655120434627135e-25
-0.48701548584374876	9.435847607809511e-25
-0.48695445068749876	1.0190911409046484e-24
-0.48689341553124876	1.0918117542113674e-24
-0.48683238037499876	1.1615347073730518e-24
-0.48677134521874876	1.228056586076793e-24
-0.48671031006249876	1.29118332718524e-24
-0.48664927490624876	1.3507300910155069e-24
-0.48658823974999876	1.4065224494005087e-24
-0.48652720459374876	1.458396669179425e-24
-0.48646616943749876	1.506199871130708e-24
-0.48640513428124876	1.5497911265232834e-24
-0.48634409912499876	1.5890412740742275e-24
-0.48628306396874876	1.62383351614372e-24
-0.48622202881249876	1.6540639893224651e-24
-0.48616099365624876	1.679641575730195e-24
-0.48609995849999876	1.7004886507541265e-24
-0.48603892334374876	1.71654106878646e-24
-0.48597788818749876	1.7277483106998303e-24
-0.48591685303124876	1.7340738872683948e-24
-0.48585581787499876	1.735495156100107e-24
-0.48579478271874876	1.7320035830888322e-24
-0.48573374756249876	1.723604763762696e-24
-0.48567271240624876	1.710318296007041e-24
-0.48561167724999876	1.692177880504326e-24
-0.48555064209374876	1.6692311325347707e-24
-0.48548960693749876	1.6415394816027446e-24
-0.48542857178124876	1.6091780417710015e-24
-0.48536753662499876	1.572235305917289e-24
-0.48530650146874876	1.530813036102207e-24
-0.48524546631249876	1.4850258655753063e-24
-0.48518443115624876	1.4350009685582428e-24
-0.48512339599999876	1.3808778939214508e-24
-0.48506236084374876	1.32280785413542e-24
-0.48500132568749876	1.2609535753436795e-24
-0.48494029053124876	1.195488766928371e-24
-0.48487925537499876	1.126597407991973e-24
-0.48481822021874876	1.0544736726885704e-24
-0.48475718506249876	9.793209124310607e-25
-0.48469614990624876	9.013513117017287e-25
-0.48463511474999876	8.207854057844798e-25
-0.48457407959374876	7.3785104269398855e-25
-0.48451304443749876	6.527831892657483e-25
-0.48445200928124876	5.658230130477142e-25
-0.48439097412499876	4.772171269861288e-25
-0.48432993896874876	3.872171453365157e-25
-0.48426890381249876	2.960787279565315e-25
-0.48420786865624876	2.0406089455402937e-25
-0.48414683349999876	1.1142542891379852e-25
-0.48408579834374876	1.8435914771404366e-26
-0.48402476318749876	-7.464291527539587e-26
-0.48396372803124876	-1.6754585989734318e-25
-0.48390269287499876	-2.600082443524341e-25
-0.48384165771874876	-3.517663449560398e-25
-0.48378062256249876	-4.425585514659348e-25
-0.48371958740624876	-5.321257614046388e-25
-0.48365855224999876	-6.202122340272027e-25
-0.48359751709374876	-7.065666652256349e-25
-0.48353648193749876	-7.909421867073844e-25
-0.48347544678124876	-8.730978231290553e-25
-0.48341441162499876	-9.527988343289598e-25
-0.48335337646874876	-1.0298172719850925e-24
-0.48329234131249876	-1.1039329711725753e-24
-0.48323130615624876	-1.1749339705515187e-24
-0.48317027099999876	-1.2426171089056086e-24
-0.48310923584374876	-1.3067887683552526e-24
-0.48304820068749876	-1.3672653672396911e-24
-0.48298716553124876	-1.4238736891682282e-24
-0.48292613037499876	-1.4764518526370676e-24
-0.48286509521874876	-1.5248492935425629e-24
-0.48280406006249876	-1.5689274333253246e-24
-0.48274302490624876	-1.6085602408160558e-24
-0.48268198974999876	-1.6436341713354842e-24
-0.48262095459374876	-1.6740489390377834e-24
-0.48255991943749876	-1.699717601771569e-24
-0.48249888428124876	-1.7205667289692373e-24
-0.48243784912499876	-1.7365368953484663e-24
-0.48237681396874876	-1.747582586565007e-24
-0.48231577881249876	-1.753672460760222e-24
-0.48225474365624876	-1.754789501933308e-24
-0.48219370849999876	-1.7509309153633225e-24
-0.48213267334374876	-1.7421082856295523e-24
-0.48207163818749876	-1.7283475040589293e-24
-0.48201060303124876	-1.7096886405077988e-24
-0.48194956787499876	-1.6861859444951458e-24
-0.48188853271874876	-1.657907615802974e-24
-0.48182749756249876	-1.6249355878036134e-24
-0.48176646240624876	-1.5873654642493387e-24
-0.48170542724999876	-1.5453059682483177e-24
-0.48164439209374876	-1.4988789124768853e-24
-0.48158335693749876	-1.4482187390890977e-24
-0.48152232178124876	-1.3934719821292392e-24
-0.48146128662499876	-1.3347972390268936e-24
-0.48140025146874876	-1.2723642548869666e-24
-0.48133921631249876	-1.2063537575886446e-24
-0.48127818115624876	-1.136956921009304e-24
-0.48121714599999876	-1.064374517310398e-24
-0.48115611084374876	-9.888168042818968e-25
-0.48109507568749876	-9.105025330320739e-25
-0.48103404053124876	-8.296584592965023e-25
-0.48097300537499876	-7.465188072490988e-25
-0.48091197021874876	-6.613243530528248e-25
-0.48085093506249876	-5.743219237588767e-25
-0.48078989990624876	-4.857636342358908e-25
-0.48072886474999876	-3.9590612423917605e-25
-0.48066782959374876	-3.05009814466855e-25
-0.48060679443749876	-2.133382928455286e-25
-0.48054575928124876	-1.2115721244195656e-25
-0.48048472412499876	-2.8734026030890675e-26
-0.48042368896874876	6.36631969374801e-26
-0.48036265381249876	1.5576656884502866e-25
-0.48030161865624876	2.473085741570384e-25
-0.48024058349999876	3.380238341510755e-25
-0.48017954834374876	4.276488223330531e-25
-0.48011851318749876	5.159233641496908e-25
-0.48005747803124876	6.025913122966482e-25
-0.47999644287499876	6.874005979138341e-25
-0.47993540771874876	7.701051563744363e-25
-0.47987437256249876	8.50464508408728e-25
-0.47981333740624876	9.282450510231815e-25
-0.47975230224999876	1.0032208523846644e-24
-0.47969126709374876	1.0751736923587355e-24
-0.47963023193749876	1.143894364242797e-24
-0.47956919678124876	1.209183006077614e-24
-0.47950816162499876	1.270849502127743e-24
-0.47944712646874876	1.3287143547114467e-24
-0.47938609131249876	1.3826091513822885e-24
-0.47932505615624876	1.432376781659912e-24
-0.47926402099999876	1.4778722952013876e-24
-0.47920298584374876	1.5189630408452688e-24
-0.47914195068749876	1.5555291349637323e-24
-0.47908091553124876	1.5874639224601683e-24
-0.47901988037499876	1.6146741116849068e-24
-0.47895884521874876	1.637080210911698e-24
-0.47889781006249876	1.6546166229344398e-24
-0.47883677490624876	1.6672320095697243e-24
-0.47877573974999876	1.6748892726767945e-24
-0.47871470459374876	1.6775657748457674e-24
-0.47865366943749876	1.6752534297983878e-24
-0.47859263428124876	1.667958603914812e-24
-0.47853159912499876	1.6557022664006085e-24
-0.47847056396874876	1.6385198208800523e-24
-0.47840952881249876	1.6164610400957557e-24
-0.47834849365624876	1.589589961172925e-24
-0.47828745849999876	1.557984649954372e-24
-0.47822642334374876	1.5217370263643137e-24
-0.47816538818749876	1.4809525754953344e-24
-0.47810435303124876	1.4357500531788758e-24
-0.47804331787499876	1.386261160101153e-24
-0.47798228271874876	1.3326301595942877e-24
-0.47792124756249876	1.2750134210336486e-24
-0.47786021240624876	1.2135790611701898e-24
-0.47779917724999876	1.1485063785612161e-24
-0.47773814209374876	1.0799853043231336e-24
-0.47767710693749876	1.0082160586783304e-24
-0.47761607178124876	9.334082946901042e-25
-0.47755503662499876	8.557806252591593e-25
-0.47749400146874876	7.755601283028555e-25
-0.47743296631249876	6.929814159864827e-25
-0.47737193115624876	6.08286073146988e-25
-0.47731089599999876	5.217221238155611e-25
-0.47724986084374876	4.335430108030001e-25
-0.47718882568749876	3.4400703640565487e-25
-0.47712779053124876	2.5337667917834256e-25
-0.47706675537499876	1.6191762643319907e-25
-0.47700572021874876	6.989812163726981e-26
-0.47694468506249876	-2.2411761412671122e-26
-0.47688364990624876	-1.1474098101875169e-25
-0.47682261474999876	-2.0681847333027134e-25
-0.47676157959374876	-2.9837350517854194e-25
-0.47670054443749876	-3.8913690546362682e-25
-0.47663950928124876	-4.788417727964705e-25
-0.47657847412499876	-5.6722389878186435e-25
-0.47651743896874876	-6.540230625578295e-25
-0.47645640381249876	-7.389834221774142e-25
-0.47639536865624876	-8.218543876971535e-25
-0.47633433349999876	-9.023913733861343e-25
-0.47627329834374876	-9.803564273394013e-25
-0.47621226318749876	-1.0555191307726043e-24
-0.47615122803124876	-1.1276569649455135e-24
-0.47609019287499876	-1.1965562257528837e-24
-0.47602915771874876	-1.2620126373652083e-24
-0.47596812256249876	-1.323831674406574e-24
-0.47590708740624876	-1.3818295543759097e-24
-0.47584605224999876	-1.4358334813415584e-24
-0.47578501709374876	-1.4856821463922685e-24
-0.47572398193749876	-1.5312265203533809e-24
-0.47566294678124876	-1.5723298696068288e-24
-0.47560191162499876	-1.6088684525752174e-24
-0.47554087646874876	-1.640731867292416e-24
-0.47547984131249876	-1.667823187194382e-24
-0.47541880615624876	-1.6900594951683353e-24
-0.47535777099999876	-1.707371995786028e-24
-0.47529673584374876	-1.7197062103669535e-24
-0.47523570068749876	-1.727022237099087e-24
-0.47517466553124876	-1.729294808578945e-24
-0.47511363037499876	-1.7265133799941107e-24
-0.47505259521874876	-1.718682201398676e-24
-0.47499156006249876	-1.7058202591467424e-24
-0.47493052490624876	-1.6879613063998995e-24
-0.47486948974999876	-1.6651536801918147e-24
-0.47480845459374876	-1.6374602422081374e-24
-0.47474741943749876	-1.6049582050888647e-24
-0.47468638428124876	-1.5677387935317165e-24
-0.47462534912499876	-1.5259072126867982e-24
-0.47456431396874876	-1.4795821093244786e-24
-0.47450327881249876	-1.4288953556052924e-24
-0.47444224365624876	-1.3739917364963074e-24
-0.47438120849999876	-1.3150283252239038e-24
-0.47432017334374876	-1.2521742585588736e-24
-0.47425913818749876	-1.185610109442024e-24
-0.47419810303124876	-1.1155273906733031e-24
-0.47413706787499876	-1.0421280282347283e-24
-0.47407603271874876	-9.656238161775597e-25
-0.47401499756249876	-8.86235650258328e-25
-0.47395396240624876	-8.041930054490654e-25
-0.47389292724999876	-7.197333969669599e-25
-0.47383189209374876	-6.331012900903491e-25
-0.47377085693749876	-5.445478600295213e-25
-0.47370982178124876	-4.54330002164262e-25
-0.47364878662499876	-3.627094391343782e-25
-0.47358775146874876	-2.6995245168648745e-25
-0.47352671631249876	-1.76328545843119e-25
-0.47346568115624876	-8.210999446374593e-26
-0.47340464599999876	1.2428968903472713e-26
-0.47334361084374876	1.0701318783269395e-25
-0.47328257568749876	2.0136699339425956e-25
-0.47322154053124876	2.9521547296204927e-25
-0.47316050537499876	3.8828490484819786e-25
-0.47309947021874876	4.803036486539032e-25
-0.47303843506249876	5.710032141939582e-25
-0.47297739990624876	6.60118548645453e-25
-0.47291636474999876	7.473892576825748e-25
-0.47285532959374876	8.325602311252802e-25
-0.47279429443749876	9.15382228263146e-25
-0.47273325928124876	9.956128207620673e-25
-0.47267222412499876	1.0730171119788935e-24
-0.47261118896874876	1.1473682325398865e-24
-0.47255015381249876	1.218448103843432e-24
-0.47248911865624876	1.2860483493989782e-24
-0.47242808349999876	1.3499703351198015e-24
-0.47236704834374876	1.4100263087923927e-24
