Time	Frequency
-0.5000541212812522	-1.2073817355652703e-24
-0.49999308612500215	-1.1897947146731653e-24
-0.49993205096875215	-1.1675829047066169e-24
-0.49987101581250215	-1.140827517099374e-24
-0.49980998065625215	-1.1096273000042464e-24
-0.49974894550000215	-1.0740979399783584e-24
-0.49968791034375215	-1.034371840687271e-24
-0.49962687518750215	-9.905975591171702e-25
-0.49956584003125215	-9.4293910722685e-25
-0.49950480487500215	-8.915756098823763e-25
-0.49944376971875215	-8.367003867321578e-25
-0.49938273456250215	-7.78520321740532e-25
-0.49932169940625215	-7.172551283433404e-25
-0.49926066425000215	-6.531363870019074e-25
-0.49919962909375215	-5.864068193629371e-25
-0.49913859393750215	-5.17319243511999e-25
-0.49907755878125215	-4.461356387635442e-25
-0.49901652362500215	-3.731263249023323e-25
-0.49895548846875215	-2.985686106544975e-25
-0.49889445331250215	-2.227459966444227e-25
-0.49883341815625215	-1.459469889486077e-25
-0.49877238300000215	-6.846409689368371e-26
-0.49871134784375215	9.407364526499778e-27
-0.49865031268750215	8.737060167116108e-26
-0.49858927753125215	1.6512789743399269e-25
-0.49852824237500215	2.4238234111544564e-25
-0.49846720721875215	3.1883880036935136e-25
-0.49840617206250215	3.9420473433606095e-25
-0.49834513690625215	4.681917233318036e-25
-0.49828410175000215	5.405165074928323e-25
-0.49822306659375215	6.109016978165429e-25
-0.49816203143750215	6.79077321707256e-25
-0.49810099628125215	7.447817306834406e-25
-0.49803996112500215	8.077621868609264e-25
-0.49797892596875215	8.677765032881977e-25
-0.49791789081250215	9.245936187984486e-25
-0.49785685565625215	9.779942942200184e-25
-0.49779582050000215	1.0277723200035076e-24
-0.49773478534375215	1.0737353137089946e-24
-0.49767375018750215	1.115705043614239e-24
-0.49761271503125215	1.1535185031189287e-24
-0.49755167987500215	1.1870286130010922e-24
-0.49749064471875215	1.2161043126239478e-24
-0.49742960956250215	1.240631564107222e-24
-0.49736857440625215	1.2605136029486066e-24
-0.49730753925000215	1.275671206173477e-24
-0.49724650409375215	1.2860432402237156e-24
-0.49718546893750215	1.2915867364622004e-24
-0.49712443378125215	1.2922770785861888e-24
-0.49706339862500215	1.2881082082779805e-24
-0.49700236346875215	1.2790925608546582e-24
-0.49694132831250215	1.2652610394495279e-24
-0.49688029315625215	1.2466629752127136e-24
-0.49681925800000215	1.2233658637424407e-24
-0.49675822284375215	1.195455175560111e-24
-0.49669718768750215	1.1630340119748473e-24
-0.49663615253125215	1.1262227168956558e-24
-0.49657511737500215	1.0851584635573313e-24
-0.49651408221875215	1.0399947081670245e-24
-0.49645304706250215	9.909005424308676e-25
-0.49639201190625215	9.38060278922645e-25
-0.49633097675000215	8.816725077399592e-25
-0.49626994159375215	8.2194931711773775e-25
-0.49620890643750215	7.591159327178615e-25
-0.49614787128125215	6.934092920430248e-25
-0.49608683612500215	6.25077360892577e-25
-0.49602580096875215	5.54378429230126e-25
-0.49596476581250215	4.815798773874437e-25
-0.49590373065625215	4.069570044737403e-25
-0.49584269550000215	3.307923365542409e-25
-0.49578166034375215	2.533745689364495e-25
-0.49572062518750215	1.7499684648972697e-25
-0.49565959003125215	9.595642952051397e-26
-0.49559855487500215	1.655323957229133e-26
-0.49553751971875215	-6.291163181735212e-26
-0.49547648456250215	-1.4213646233947957e-25
-0.49541544940625215	-2.2082040656695734e-25
-0.49535441425000215	-2.986647373600852e-25
-0.49529337909375215	-3.753736453392224e-25
-0.49523234393750215	-4.506556991108321e-25
-0.49517130878125215	-5.242247878049594e-25
-0.49511027362500215	-5.95801247726648e-25
-0.49504923846875215	-6.6511304953690255e-25
-0.49498820331250215	-7.3189658473884525e-25
-0.49492716815625215	-7.958980279225227e-25
-0.49486613300000215	-8.568739645261435e-25
-0.49480509784375215	-9.145926002818375e-25
-0.49474406268750215	-9.688345289197675e-25
-0.49468302753125215	-1.01939349452082e-24
-0.49462199237500215	-1.0660774883901464e-24
-0.49456095721875215	-1.1087090788300498e-24
-0.49449992206250215	-1.1471263855909138e-24
-0.49443888690625215	-1.1811837394676563e-24
-0.49437785175000215	-1.2107519751526487e-24
-0.49431681659375215	-1.2357191185131552e-24
-0.49425578143750215	-1.2559909346521881e-24
-0.49419474628125215	-1.2714910161449852e-24
-0.49413371112500215	-1.2821612439704408e-24
-0.49407267596875215	-1.2879620931747626e-24
-0.49401164081250215	-1.2888725958068204e-24
-0.49395060565625215	-1.2848905736752042e-24
-0.49388957050000215	-1.276032614482591e-24
-0.49382853534375215	-1.2623339947837413e-24
-0.49376750018750215	-1.2438485650604319e-24
-0.49370646503125215	-1.220648562661345e-24
-0.49364542987500215	-1.1928243267355438e-24
-0.49358439471875215	-1.1604839198242781e-24
-0.49352335956250215	-1.1237528321893318e-24
-0.49346232440625215	-1.082773364745417e-24
-0.49340128925000215	-1.037704130825729e-24
-0.49334025409375215	-9.887196011406799e-25
-0.49327921893750215	-9.36009157678648e-25
-0.49321818378125215	-8.797765853270377e-25
-0.49315714862500215	-8.202392835886548e-25
-0.49309611346875215	-7.576272673713569e-25
-0.49303507831250215	-6.9218252775582e-25
-0.49297404315625215	-6.241578008204539e-25
-0.49291300800000215	-5.538159754333151e-25
-0.49285197284375215	-4.814287911098003e-25
-0.49279093768750215	-4.07275719120249e-25
-0.49272990253125215	-3.316434353177579e-25
-0.49266886737500215	-2.548239498352324e-25
-0.49260783221875215	-1.771140490219989e-25
-0.49254679706250215	-9.881406501527879e-26
-0.49248576190625215	-2.0226338788110464e-26
-0.49242472675000215	5.83453313222127e-26
-0.49236369159375215	1.3659731873847651e-25
-0.49230265643750215	2.142273750481973e-25
-0.49224162128125215	2.909353332145306e-25
-0.49218058612500215	3.6642466965628115e-25
-0.49211955096875215	4.404037056805001e-25
-0.49205851581250215	5.125863316237008e-25
-0.49199748065625215	5.826934458763673e-25
-0.49193644550000215	6.504539758857162e-25
-0.49187541034375215	7.156058625325087e-25
-0.49181437518750215	7.77897057676498e-25
-0.49175334003125215	8.37086647819079e-25
-0.49169230487500215	8.92945585359201e-25
-0.49163126971875215	9.452577128875167e-25
-0.49157023456250215	9.938206716620483e-25
-0.49150919940625215	1.0384463663383314e-24
-0.49144816425000215	1.078962169290046e-24
-0.49138712909375215	1.1152111722710561e-24
-0.49132609393750215	1.1470530172329423e-24
-0.49126505878125215	1.1743644358388393e-24
-0.49120402362500215	1.1970396213859174e-24
-0.49114298846875215	1.2149908275533343e-24
-0.49108195331250215	1.2281484394195946e-24
-0.49102091815625215	1.2364615954700514e-24
-0.49095988300000215	1.2398981241204476e-24
-0.49089884784375215	1.2384447106475707e-24
-0.49083781268750215	1.2321071360493171e-24
-0.49077677753125215	1.22091004275487e-24
-0.49071574237500215	1.2048969628901178e-24
-0.49065470721875215	1.1841301472983107e-24
-0.49059367206250215	1.1586903062923149e-24
-0.49053263690625215	1.1286763404178132e-24
-0.49047160175000215	1.094204912836071e-24
-0.49041056659375215	1.0554100380417375e-24
-0.49034953143750215	1.0124426178822111e-24
-0.49028849628125215	9.654697679542139e-25
-0.49022746112500215	9.146741797174466e-25
-0.49016642596875215	8.60253581879096e-25
-0.49010539081250215	8.024198320558957e-25
-0.49004435565625215	7.413979602930527e-25
-0.48998332050000215	6.7742573215884865e-25
-0.48992228534375215	6.107523790767963e-25
-0.48986125018750215	5.416375471826806e-25
-0.48980021503125215	4.7035088905471e-25
-0.48973917987500215	3.971702004072677e-25
-0.48967814471875215	3.223809209950422e-25
-0.48961710956250215	2.4627514926171015e-25
-0.48955607440625215	1.6914961862665287e-25
-0.48949503925000215	9.130575637396368e-26
-0.48943400409375215	1.3047742486508714e-26
-0.48937296893750215	-6.531877704872574e-26
-0.48931193378125215	-1.4348708068155092e-25
-0.48925089862500215	-2.2115141708875745e-25
-0.48918986346875215	-2.9800779461316015e-25
-0.48912882831250215	-3.7375504409653403e-25
-0.48906779315625215	-4.480963390337595e-25
-0.48900675800000215	-5.207400730588468e-25
-0.48894572284375215	-5.914010164892959e-25
-0.48888468768750215	-6.598016833322155e-25
-0.48882365253125215	-7.256730371226074e-25
-0.48876261737500215	-7.88755785358338e-25
-0.48870158221875215	-8.488014857889007e-25
-0.48864054706250215	-9.055730608843657e-25
-0.48857951190625215	-9.58846266969971e-25
-0.48851847675000215	-1.008410335945754e-24
-0.48845744159375215	-1.0540686352287677e-24
-0.48839640643750215	-1.0956397416389626e-24
-0.48833537128125215	-1.132957989151792e-24
-0.48827433612500215	-1.1658741483375972e-24
-0.48821330096875215	-1.1942559696800155e-24
-0.48815226581250215	-1.21798884131143e-24
-0.48809123065625215	-1.2369761212989573e-24
-0.48803019550000215	-1.251139503946597e-24
-0.48796916034375215	-1.2604195110567078e-24
-0.48790812518750215	-1.2647755350549264e-24
-0.48784709003125215	-1.2641860824272956e-24
-0.48778605487500215	-1.2586489534114114e-24
-0.48772501971875215	-1.2481811074661912e-24
-0.48766398456250215	-1.2328187166065028e-24
-0.48760294940625215	-1.2126170351747698e-24
-0.48754191425000215	-1.1876501178198315e-24
-0.48748087909375215	-1.158010648623689e-24
-0.48741984393750215	-1.1238095027901214e-24
-0.48735880878125215	-1.0851753822038046e-24
-0.48729777362500215	-1.0422543030887967e-24
-0.48723673846875215	-9.952090716074628e-25
-0.48717570331250215	-9.442185687275889e-25
-0.48711466815625215	-8.894771868495204e-25
-0.48705363300000215	-8.311941191137072e-25
-0.48699259784375215	-7.695922127525204e-25
-0.48693156268750215	-7.04907611043556e-25
-0.48687052753125215	-6.373885708239513e-25
-0.48680949237500215	-5.672943314491192e-25
-0.48674845721875215	-4.9489458294330125e-25
-0.48668742206250215	-4.204680064525196e-25
-0.48662638690625215	-3.4430136133009564e-25
-0.48656535175000215	-2.666884223063283e-25
-0.48650431659375215	-1.8792871493689987e-25
-0.48644328143750215	-1.083265253148548e-25
-0.48638224628125215	-2.818943811226242e-26
-0.48632121112500215	5.217244159771041e-26
-0.48626017596875215	1.3244803682452883e-25
-0.48619914081250215	2.123265582284603e-25
-0.48613810565625215	2.914981564402671e-25
-0.48607707050000215	3.696558799716253e-25
-0.48601603534375215	4.464964453670486e-25
-0.48595500018750215	5.217212327464227e-25
-0.48589396503125215	5.950379796585024e-25
-0.48583292987500215	6.661616104298708e-25
-0.48577189471875215	7.348151593493981e-25
-0.48571085956250215	8.007312695595586e-25
-0.48564982440625215	8.636530751882046e-25
-0.48558878925000215	9.233349327083022e-25
-0.48552775409375215	9.795438726601724e-25
-0.48546671893750215	1.0320601101090277e-24
-0.48540568378125215	1.0806781013873395e-24
-0.48534464862500215	1.1252073367531433e-24
-0.48528361346875215	1.1654729563219004e-24
-0.48522257831250215	1.2013167138200626e-24
-0.48516154315625215	1.2325972442281215e-24
-0.48510050800000215	1.2591909316821905e-24
-0.48503947284375215	1.2809922409196644e-24
-0.48497843768750215	1.2979141569401522e-24
-0.48491740253125215	1.309888614283459e-24
-0.48485636737500215	1.3168665873240507e-24
-0.48479533221875215	1.318818560752471e-24
-0.48473429706250215	1.3157344221605732e-24
-0.48467326190625215	1.3076235745408108e-24
-0.48461222675000215	1.2945150177262698e-24
-0.48455119159375215	1.2764571045959804e-24
-0.48449015643750215	1.2535174240427585e-24
-0.48442912128125215	1.2257825493999875e-24
-0.48436808612500215	1.193357745943524e-24
-0.48430705096875215	1.1563664434223491e-24
-0.48424601581250215	1.1149499549279423e-24
-0.48418498065625215	1.0692667604645319e-24
-0.48412394550000215	1.0194919987517574e-24
-0.48406291034375215	9.658168144835816e-25
-0.48400187518750215	9.084474216183789e-25
-0.48394084003125215	8.476047195265364e-25
-0.48387980487500215	7.835229073003128e-25
-0.48381876971875215	7.164490101963133e-25
-0.48375773456250215	6.46641826378749e-25
-0.48369669940625215	5.7437059420353e-25
-0.48363566425000215	4.99914571796851e-25
-0.48357462909375215	4.235613818357996e-25
-0.48351359393750215	3.4560601936563205e-25
-0.48345255878125215	2.6635014218946443e-25
-0.48339152362500215	1.8610032148940013e-25
-0.48333048846875215	1.0516692023553636e-25
-0.48326945331250215	2.386348035917297e-26
-0.48320841815625215	-5.749519871924083e-26
-0.48314738300000215	-1.3859418160760014e-25
-0.48308634784375215	-2.191190335283192e-25
-0.48302531268750215	-2.9875779228637235e-25
-0.48296427753125215	-3.772018489758933e-25
-0.48290324237500215	-4.541469401136056e-25
-0.48284220721875215	-5.292948933243083e-25
-0.48278117206250215	-6.023542695896595e-25
-0.48272013690625215	-6.730416422910413e-25
-0.48265910175000215	-7.410829887702604e-25
-0.48259806659375215	-8.062144061542129e-25
-0.48253703143750215	-8.681832450559686e-25
-0.48247599628125215	-9.267491535012119e-25
-0.48241496112500215	-9.816851815673273e-25
-0.48235392596875215	-1.032778262206669e-24
-0.48229289081250215	-1.0798302787805748e-24
-0.48223185565625215	-1.1226591826542274e-24
-0.48217082050000215	-1.1610989300935543e-24
-0.48210978534375215	-1.195000831279689e-24
-0.48204875018750215	-1.2242339600220602e-24
-0.48198771503125215	-1.2486853533715111e-24
-0.48192667987500215	-1.2682609361331163e-24
-0.48186564471875215	-1.2828855360070695e-24
-0.48180460956250215	-1.2925034070487277e-24
-0.48174357440625215	-1.297078299929987e-24
-0.48168253925000215	-1.296593669359148e-24
-0.48162150409375215	-1.2910528518083323e-24
-0.48156046893750215	-1.280478843505131e-24
-0.48149943378125215	-1.2649143844714918e-24
-0.48143839862500215	-1.2444217847332787e-24
-0.48137736346875215	-1.2190825896306832e-24
-0.48131632831250215	-1.1889973525835893e-24
-0.48125529315625215	-1.1542852601364345e-24
-0.48119425800000215	-1.1150835891316486e-24
-0.48113322284375215	-1.0715472207296054e-24
-0.48107218768750215	-1.023848114909156e-24
-0.48101115253125215	-9.721744952780774e-25
-0.48095011737500215	-9.167301680830827e-25
-0.48088908221875215	-8.57733891435721e-25
-0.48082804706250215	-7.954182492407394e-25
-0.48076701190625215	-7.300288821831565e-25
-0.48070597675000215	-6.618236408946286e-25
-0.48064494159375215	-5.910713752947401e-25
-0.48058390643750215	-5.180509233932069e-25
-0.48052287128125215	-4.4305022452249225e-25
-0.48046183612500215	-3.6636495132985836e-25
-0.48040080096875215	-2.88297292693718e-25
-0.48033976581250215	-2.091552382950785e-25
-0.48027873065625215	-1.2925082000792586e-25
-0.48021769550000215	-4.889903438968239e-26
-0.48015666034375215	3.1582977002361476e-26
-0.48009562518750215	1.1187781819620558e-25
-0.48003459003125215	1.9166868880751135e-25
-0.47997355487500215	2.706406409570751e-25
-0.47991251971875215	3.4848194598270896e-25
-0.47985148456250215	4.248852599225462e-25
-0.47979044940625215	4.995489206120035e-25
-0.47972941425000215	5.7217783079754305e-25
-0.47966837909375215	6.424851247593054e-25
-0.47960734393750215	7.101928782058412e-25
-0.47954630878125215	7.750332560815924e-25
-0.47948527362500215	8.367499166863019e-25
-0.47942423846875215	8.950985123108798e-25
-0.47936320331250215	9.498480758377746e-25
-0.47930216815625215	1.0007817251568802e-24
-0.47924113300000215	1.047697530180196e-24
-0.47918009784375215	1.0904094739561375e-24
-0.47911906268750215	1.1287479244116666e-24
-0.47905802753125215	1.162560559855462e-24
-0.47899699237500215	1.1917128585006548e-24
-0.47893595721875215	1.2160886277681353e-24
-0.47887492206250215	1.2355905183428552e-24
-0.47881388690625215	1.250140377509447e-24
-0.47875285175000215	1.2596796021821394e-24
-0.47869181659375215	1.2641693305750663e-24
-0.47863078143750215	1.2635906620786559e-24
-0.47856974628125215	1.2579446838221332e-24
-0.47850871112500215	1.247252521115122e-24
-0.47844767596875215	1.2315552486438884e-24
-0.47838664081250215	1.2109136957607739e-24
-0.47832560565625215	1.1854083297541324e-24
-0.47826457050000215	1.155138791858651e-24
-0.47820353534375215	1.1202236408745953e-24
-0.47814250018750215	1.0807998725593371e-24
-0.47808146503125215	1.0370222717891907e-24
-0.47802042987500215	9.890630223925656e-25
-0.47795939471875215	9.371108410971095e-25
-0.47789835956250215	8.813703043819508e-25
-0.47783732440625215	8.220611869804723e-25
-0.47777628925000215	7.59417296482346e-25
-0.47771525409375215	6.936858545892734e-25
-0.47765421893750215	6.251264631683839e-25
-0.47759318378125215	5.540098616740695e-25
-0.47753214862500215	4.806172229864184e-25
-0.47747111346875215	4.052387759141482e-25
-0.47741007831250215	3.2817270204649475e-25
-0.47734904315625215	2.497241827928312e-25
-0.47728800800000215	1.702038624466694e-25
-0.47722697284375215	8.99268266957643e-26
-0.47716593768750215	9.211458587539073e-27
-0.47710490253125215	-7.162219317409696e-26
-0.47704386737500215	-1.5225317969216663e-25
-0.47698283221875215	-2.3236126640773072e-25
-0.47692179706250215	-3.1162827844814447e-25
-0.47686076190625215	-3.8973893131631904e-25
-0.47679972675000215	-4.663823369786158e-25
-0.47673869159375215	-5.41253502956156e-25
-0.47667765643750215	-6.140540976373872e-25
-0.47661662128125215	-6.844934973523881e-25
-0.47655558612500215	-7.522908919717997e-25
-0.47649455096875215	-8.171753202143583e-25
-0.47643351581250215	-8.788870298953115e-25
-0.47637248065625215	-9.371791829525228e-25
-0.47631144550000215	-9.918179133702912e-25
-0.47625041034375215	-1.04258367872855e-24
-0.47618937518750215	-1.0892723558127471e-24
-0.47612834003125215	-1.131695615571455e-24
-0.47606730487500215	-1.1696818729679046e-24
-0.47600626971875215	-1.2030771748332292e-24
-0.47594523456250215	-1.2317454324771226e-24
-0.47588419940625215	-1.255569201041317e-24
-0.47582316425000215	-1.2744502513223496e-24
-0.47576212909375215	-1.2883096748080336e-24
-0.47570109393750215	-1.2970884321068672e-24
-0.47564005878125215	-1.3007475945692786e-24
-0.47557902362500215	-1.2992683502502431e-24
-0.47551798846875215	-1.2926522705771458e-24
-0.47545695331250215	-1.2809212175090194e-24
-0.47539591815625215	-1.2641172589865898e-24
-0.47533488300000215	-1.2423026197186522e-24
-0.47527384784375215	-1.2155592924089104e-24
-0.47521281268750215	-1.1839888540308016e-24
-0.47515177753125215	-1.1477120683224935e-24
-0.47509074237500215	-1.1068682658495796e-24
-0.47502970721875215	-1.0616150531696954e-24
-0.47496867206250215	-1.0121275078119383e-24
-0.47490763690625215	-9.585975000859646e-25
-0.47484660175000215	-9.012331251550857e-25
-0.47478556659375215	-8.402576816431933e-25
-0.47472453143750215	-7.759089053267822e-25
-0.47466349628125215	-7.084379948839723e-25
-0.47460246112500215	-6.381086802952398e-25
-0.47454142596875215	-5.651961437312247e-25
-0.47448039081250215	-4.899859577320021e-25
-0.47441935565625215	-4.1277287301907236e-25
-0.47435832050000215	-3.338598723928205e-25
-0.47429728534375215	-2.53556768900805e-25
-0.47423625018750215	-1.7217891011859604e-25
-0.47417521503125215	-9.004651374441307e-26
-0.47411417987500215	-7.482433058475129e-27
-0.47405314471875215	7.518832916363962e-26
-0.47399210956250215	1.5763985945180944e-25
-0.47393107440625215	2.3954763250525047e-25
-0.47387003925000215	3.205884269006683e-25
-0.47380900409375215	4.004424377414432e-25
-0.47374796893750215	4.787947246182595e-25
-0.47368693378125215	5.553355471665529e-25
-0.47362589862500215	6.2976252778159085e-25
-0.47356486346875215	7.01781464172357e-25
-0.47350382831250215	7.711072772819663e-25
-0.47344279315625215	8.374655562623022e-25
-0.47338175800000215	9.005935655173744e-25
-0.47332072284375215	9.602409299894007e-25
-0.47325968768750215	1.0161710463400238e-24
-0.47319865253125215	1.0681620892617317e-24
-0.47313761737500215	1.116007237993903e-24
-0.47307658221875215	1.1595163322986022e-24
-0.47301554706250215	1.1985162170695274e-24
-0.47295451190625215	1.2328512158164672e-24
-0.47289347675000215	1.262384379283313e-24
-0.47283244159375215	1.286997447157051e-24
-0.47277140643750215	1.3065915733051718e-24
-0.47271037128125215	1.32108786884561e-24
-0.47264933612500215	1.3304273930723095e-24
-0.47258830096875215	1.3345716546721935e-24
-0.47252726581250215	1.3335027124189084e-24
-0.47246623065625215	1.3272231879647217e-24
-0.47240519550000215	1.3157563588704725e-24
-0.47234416034375215	1.2991460047076564e-24
