Time	Frequency
-0.5000476831249969	0.3584653937006617
-0.4999866479687469	0.36015902677631745
-0.4999256128124969	0.3607997220016605
-0.4998645776562469	0.3603856893150745
-0.4998035424999969	0.35891817619508903
-0.4997425073437469	0.35640152621615756
-0.4996814721874969	0.3528431249878345
-0.4996204370312469	0.3482533839898275
-0.4995594018749969	0.3426457355957623
-0.4994983667187469	0.3360365707429875
-0.4994373315624969	0.32844519660026067
-0.4993762964062469	0.31989380070552176
-0.4993152612499969	0.3104073593680085
-0.4992542260937469	0.30001358813128676
-0.4991931909374969	0.2887428489074316
-0.4991321557812469	0.27662807939165474
-0.4990711206249969	0.2637046727993137
-0.4990100854687469	0.25001039442699835
-0.4989490503124969	0.2355852871354857
-0.4988880151562469	0.2204714998226459
-0.4988269799999969	0.20471324339632208
-0.4987659448437469	0.1883566018742462
-0.4987049096874969	0.1714494024134981
-0.4986438745312469	0.15404115382164757
-0.4985828393749969	0.13618276975629
-0.4985218042187469	0.11792653547951835
-0.4984607690624969	0.09932593454672686
-0.4983997339062469	0.08043540833521312
-0.4983386987499969	0.06131034312745062
-0.4982776635937469	0.042006770041034695
-0.4982166284374969	0.02258128376495855
-0.4981555932812469	0.0030908779457998674
-0.4980945581249969	-0.01640730121484835
-0.4980335229687469	-0.035856002910535874
-0.4979724878124969	-0.055198117422397185
-0.4979114526562469	-0.07437685748449029
-0.4978504174999969	-0.09333584305031033
-0.4977893823437469	-0.11201932788281417
-0.4977283471874969	-0.130372376217165
-0.4976673120312469	-0.1483409623030824
-0.4976062768749969	-0.16587216793540055
-0.4975452417187469	-0.18291435434420816
-0.4974842065624969	-0.19941725426803789
-0.4974231714062469	-0.2153321732543163
-0.4973621362499969	-0.2306121512653602
-0.4973011010937469	-0.24521198664078814
-0.4972400659374969	-0.25908849882382734
-0.4971790307812469	-0.2722006233751471
-0.4971179956249969	-0.2845094411879498
-0.4970569604687469	-0.2959784286258889
-0.4969959253124969	-0.3065734913963739
-0.4969348901562469	-0.3162630319311069
-0.4968738549999969	-0.3250181425131057
-0.4968128198437469	-0.33281261161978926
-0.4967517846874969	-0.3396230063946743
-0.4966907495312469	-0.34542879918241043
-0.4966297143749969	-0.3502123716214571
-0.4965686792187469	-0.35395906888328477
-0.4965076440624969	-0.35665730618198066
-0.4964466089062469	-0.35829852995669736
-0.4963855737499969	-0.3588772667657764
-0.4963245385937469	-0.3583911897864501
-0.4962635034374969	-0.35684104367710173
-0.4962024682812469	-0.35423070921873206
-0.4961414331249969	-0.3505671727843716
-0.4960803979687469	-0.34586049764379156
-0.4960193628124969	-0.34012380579651236
-0.4959583276562469	-0.333373250748985
-0.4958972924999969	-0.32562794756149827
-0.4958362573437469	-0.3169099414840202
-0.4957752221874969	-0.30724413785095095
-0.4957141870312469	-0.296658213268842
-0.4956531518749969	-0.2851825812408564
-0.4955921167187469	-0.27285024140965997
-0.4955310815624969	-0.25969674390267306
-0.4954700464062469	-0.24576005272658333
-0.4954090112499969	-0.231080438862687
-0.4953479760937469	-0.21570038138538436
-0.4952869409374969	-0.19966441915194763
-0.4952259057812469	-0.18301904934434285
-0.4951648706249969	-0.16581256185400664
-0.4951038354687469	-0.14809492982430808
-0.4950428003124969	-0.12991764776798329
-0.4949817651562469	-0.1113335603697019
-0.4949207299999969	-0.0923967841829567
-0.4948596948437469	-0.07316242494224359
-0.4947986596874969	-0.05368655106179638
-0.4947376245312469	-0.03402596337256769
-0.4946765893749969	-0.014237970959665665
-0.4946155542187469	0.005619615580581506
-0.4945545190624969	0.02548885168517895
-0.4944934839062469	0.04531162730705601
-0.4944324487499969	0.06503002755035894
-0.4943714135937469	0.08458635611229648
-0.4943103784374969	0.10392334020221468
-0.4942493432812469	0.12298443384649763
-0.4941883081249969	0.14171368944227886
-0.4941272729687469	0.16005626814149052
-0.4940662378124969	0.17795834998851637
-0.4940052026562469	0.19536734703807748
-0.4939441674999969	0.21223218737424485
-0.4938831323437469	0.22850326071081026
-0.4938220971874969	0.24413273653161388
-0.4937610620312469	0.25907461227248785
-0.4937000268749969	0.2732848615200339
-0.4936389917187469	0.2867216131725866
-0.4935779565624969	0.2993451949625339
-0.4935169214062469	0.31111833070520317
-0.4934558862499969	0.32200619438175054
-0.4933948510937469	0.33197653871702076
-0.4933338159374969	0.3409997901177483
-0.4932727807812469	0.34904912012491746
-0.4932117456249969	0.35610056786307837
-0.4931507104687469	0.36213303317483764
-0.4930896753124969	0.367128441667671
-0.4930286401562469	0.37107171096908226
-0.4929676049999969	0.37395083319121486
-0.4929065698437469	0.3757569451616279
-0.4928455346874969	0.3764842672333124
-0.4927844995312469	0.3761302236185181
-0.4927234643749969	0.3746953815208212
-0.4926624292187469	0.3721834680625314
-0.4926013940624969	0.3686013840965825
-0.4925403589062469	0.3639591545581022
-0.4924793237499969	0.35826991472569364
-0.4924182885937469	0.35154987886665595
-0.4923572534374969	0.34381828229939826
-0.4922962182812469	0.33509733135950764
-0.4922351831249969	0.3254121442417461
-0.4921741479687469	0.3147906682399005
-0.4921131128124969	0.30326360926370693
-0.4920520776562469	0.29086434201621897
-0.4919910424999969	0.27762880901691317
-0.4919300073437469	0.26359539710485336
-0.4918689721874969	0.24880489647297743
-0.4918079370312469	0.23330027258232847
-0.4917469018749969	0.21712662850564576
-0.4916858667187469	0.20033108492217128
-0.4916248315624969	0.18296249347727445
-0.4915637964062469	0.16507153543162567
-0.4915027612499969	0.1467103705458521
-0.4914417260937469	0.12793250396918515
-0.4913806909374969	0.10879283679236858
-0.4913196557812469	0.08934719023990201
-0.4912586206249969	0.06965236941035742
-0.4911975854687469	0.049765970856585115
-0.4911365503124969	0.029746067102465554
-0.4910755151562469	0.009651262084669775
-0.4910144799999969	-0.010459720843214853
-0.4909534448437469	-0.03052799327408339
-0.4908924096874969	-0.05049481227518552
-0.4908313745312469	-0.0703017933676055
-0.4907703393749969	-0.08989080917724757
-0.4907093042187469	-0.10920458984691979
-0.4906482690624969	-0.12818650950884336
-0.4905872339062469	-0.14678088034533002
-0.4905261987499969	-0.16493331167788758
-0.4904651635937469	-0.18259047481617585
-0.4904041284374969	-0.1997006551403884
-0.4903430932812469	-0.21621365888084743
-0.4902820581249969	-0.23208100947387986
-0.4902210229687469	-0.24725622907607103
-0.4901599878124969	-0.2616947065860991
-0.4900989526562469	-0.2753541268546202
-0.4900379174999969	-0.2881943930246036
-0.4899768823437469	-0.3001777982267062
-0.4899158471874969	-0.31126920320052986
-0.4898548120312469	-0.3214360302687372
-0.4897937768749969	-0.3306484604247917
-0.4897327417187469	-0.33887944767960365
-0.4896717065624969	-0.34610486854331857
-0.4896106714062469	-0.35230351608564
-0.4895496362499969	-0.35745722894000376
-0.4894886010937469	-0.3615509452992195
-0.4894275659374969	-0.3645726671303192
-0.4893665307812469	-0.36651361327582566
-0.4893054956249969	-0.36736816692991886
-0.4892444604687469	-0.36713390222849535
-0.4891834253124969	-0.3658116376502214
-0.4891223901562469	-0.36340537896781805
-0.4890613549999969	-0.35992234559773506
-0.4890003198437469	-0.35537293846509965
-0.4889392846874969	-0.34977070544378636
-0.4888782495312469	-0.34313232168908225
-0.4888172143749969	-0.33547750841681406
-0.4887561792187469	-0.32682901769038997
-0.4886951440624969	-0.3172125359151707
-0.4886341089062469	-0.30665660847159404
-0.4885730737499969	-0.29519258987149005
-0.4885120385937469	-0.2828545047167935
-0.4884510034374969	-0.26967898835610543
-0.4883899682812469	-0.25570516651129827
-0.4883289331249969	-0.24097451241049087
-0.4882678979687469	-0.2255307902377795
-0.4882068628124969	-0.2094198616541103
-0.4881458276562469	-0.19268956278171842
-0.4880847924999969	-0.17538963893023748
-0.4880237573437469	-0.1575714569934915
-0.4879627221874969	-0.13928798415878343
-0.4879016870312469	-0.12059359970156944
-0.4878406518749969	-0.10154383379449364
-0.4877796167187469	-0.08219539347266652
-0.4877185815624969	-0.06260581325349461
-0.4876575464062469	-0.04283337978283063
-0.4875965112499969	-0.022936971323364495
-0.4875354760937469	-0.0029757912532234016
-0.4874744409374969	0.016990673384370745
-0.4874134057812469	0.03690296356262457
-0.4873523706249969	0.05670171343040843
-0.4872913354687469	0.07632790669829807
-0.4872303003124969	0.09572300154732859
-0.4871692651562469	0.11482910261523305
-0.4871082299999969	0.133589221415632
-0.4870471948437469	0.15194728358816437
-0.4869861596874969	0.16984844523582734
-0.4869251245312469	0.18723919895973296
-0.4868640893749969	0.20406750598446938
-0.4868030542187469	0.22028298561883047
-0.4867420190624969	0.235837079818788
-0.4866809839062469	0.25068314464964947
-0.4866199487499969	0.2647766401191516
-0.4865589135937469	0.2780752558488141
-0.4864978784374969	0.29053896853889655
-0.4864368432812469	0.3021303038043361
-0.4863758081249969	0.31281430443034597
-0.4863147729687469	0.32255869527234277
-0.4862537378124969	0.33133401839533894
-0.4861927026562469	0.3391136495382355
-0.4861316674999969	0.3458739250881622
-0.4860706323437469	0.3515941951364197
-0.4860095971874969	0.3562569081639045
-0.4859485620312469	0.35984762910631246
-0.4858875268749969	0.36235511262944964
-0.4858264917187469	0.3637713337147195
-0.4857654565624969	0.3640914983971469
-0.4857044214062469	0.36331407831036927
-0.4856433862499969	0.36144080473109796
-0.4855823510937469	0.35847667075081
-0.4855213159374969	0.35442991092498466
-0.4854602807812469	0.3493119946296365
-0.4853992456249969	0.3431375681162198
-0.4853382104687469	0.3359244426706142
-0.4852771753124969	0.327693519319277
-0.4852161401562469	0.3184687318384926
-0.4851551049999969	0.3082770023062914
-0.4850940698437469	0.2971481188280549
-0.4850330346874969	0.2851146872307085
-0.4849719995312469	0.2722120225989972
-0.4849109643749969	0.2584780373764406
-0.4848499292187469	0.24395313063460075
-0.4847888940624969	0.2286800922583974
-0.4847278589062469	0.21270396108484055
-0.4846668237499969	0.19607185595670393
-0.4846057885937469	0.17883292219000246
-0.4845447534374969	0.16103811255858563
-0.4844837182812469	0.14274003683838943
-0.4844226831249969	0.12399288831412335
-0.4843616479687469	0.10485216516942975
-0.4843006128124969	0.08537460822687663
-0.4842395776562469	0.06561796909553658
-0.4841785424999969	0.04564086825495819
-0.4841175073437469	0.02550261969177191
-0.4840564721874969	0.005263015189546297
-0.4839954370312469	-0.015017746697287481
-0.4839344018749969	-0.03527940738557315
-0.4838733667187469	-0.055461659166102524
-0.4838123315624969	-0.07550441415610062
-0.4837512964062469	-0.0953480121936736
-0.4836902612499969	-0.11493326485936879
-0.4836292260937469	-0.13420183403943292
-0.4835681909374969	-0.15309619330533983
-0.4835071557812469	-0.1715599275478225
-0.4834461206249969	-0.18953794907170357
-0.4833850854687469	-0.2069764329587666
-0.4833240503124969	-0.22382327987313103
-0.4832630151562469	-0.24002805622498918
-0.4832019799999969	-0.2555421825169335
-0.4831409448437469	-0.27031919832305745
-0.4830799096874969	-0.28431471925344
-0.4830188745312469	-0.2974867195520095
-0.4829578393749969	-0.30979559196634693
-0.4828968042187469	-0.3212042614245304
-0.4828357690624969	-0.33167833501854654
-0.4827747339062469	-0.34118617275141505
-0.4827136987499969	-0.34969898320465903
-0.4826526635937469	-0.3571909529735383
-0.4825916284374969	-0.3636392599304093
-0.4825305932812469	-0.36902419743092757
-0.4824695581249969	-0.3733292211218556
-0.4824085229687469	-0.3765409588371174
-0.4823474878124969	-0.37864933678353224
-0.4822864526562469	-0.3796475174853206
-0.4822254174999969	-0.3795319841476871
-0.4821643823437469	-0.37830254278178876
-0.4821033471874969	-0.3759622955725871
-0.4820423120312469	-0.37251767182234813
-0.4819812768749969	-0.3679783823027429
-0.4819202417187469	-0.36235740908428876
-0.4818592065624969	-0.3556709545189617
-0.4817981714062469	-0.3479384100882935
-0.4817371362499969	-0.3391822879623359
-0.4816761010937469	-0.32942815701396033
-0.4816150659374969	-0.31870457886359077
-0.4815540307812469	-0.3070430041655807
-0.4814929956249969	-0.294477708646537
-0.4814319604687469	-0.2810456542685409
-0.4813709253124969	-0.2667864288141164
-0.4813098901562469	-0.2517420821298844
-0.4812488549999969	-0.23595701291736196
-0.4811878198437469	-0.21947789828311498
-0.4811267846874969	-0.20235341771813387
-0.4810657495312469	-0.18463428364945514
-0.4810047143749969	-0.1663729596115289
-0.4809436792187469	-0.14762351435354665
-0.4808826440624969	-0.1284415819014353
-0.4808216089062469	-0.10888402318271376
-0.4807605737499969	-0.08900888298181718
-0.4806995385937469	-0.06887516476525234
-0.4806385034374969	-0.04854268921232272
-0.4805774682812469	-0.028071851652960965
-0.4805164331249969	-0.007523511801924922
-0.4804553979687469	0.013041190872888407
-0.4803943628124969	0.03356114000767726
-0.4803333276562469	0.05397520738101439
-0.4802722924999969	0.0742226433292265
-0.4802112573437469	0.09424315486958117
-0.4801502221874969	0.11397706389670899
-0.4800891870312469	0.13336560662079125
-0.4800281518749969	0.15235094942649724
-0.4799671167187469	0.17087649478341965
-0.4799060815624969	0.1888869690786352
-0.4798450464062469	0.20632864126844463
-0.4797840112499969	0.22314946198913224
-0.4797229760937469	0.23929917679723914
-0.4796619409374969	0.2547295842382005
-0.4796009057812469	0.2693945787070295
-0.4795398706249969	0.2832503220154336
-0.4794788354687469	0.2962554162806798
-0.4794178003124969	0.30837096115224705
-0.4793567651562469	0.31956070778278534
-0.4792957299999969	0.3297912005616958
-0.4792346948437469	0.33903178777687587
-0.4791736596874969	0.34725482192688784
-0.4791126245312469	0.3544356640340952
-0.4790515893749969	0.36055277902652144
-0.4789905542187469	0.36558785478569444
-0.4789295190624969	0.36952575541526395
-0.4788684839062469	0.3723546679918509
-0.4788074487499969	0.374066084199611
-0.4787464135937469	0.3746548351214329
-0.4786853784374969	0.37411912703659683
-0.4786243432812469	0.37246052502438787
-0.4785633081249969	0.3696839654135071
-0.4785022729687469	0.36579773590531284
-0.4784412378124969	0.3608134540657253
-0.4783802026562469	0.35474603554309564
-0.4783191674999969	0.34761364424127683
-0.4782581323437469	0.339437651807571
-0.4781970971874969	0.3302425619205585
-0.4781360620312469	0.3200559404980702
-0.4780750268749969	0.30890835242852593
-0.4780139917187469	0.29683323469729156
-0.4779529565624969	0.2838668380163696
-0.4778919214062469	0.27004809397211743
-0.4778308862499969	0.25541849608080647
-0.4777698510937469	0.24002200804942642
-0.4777088159374969	0.22390488949970377
-0.4776477807812469	0.20711558302042135
-0.4775867456249969	0.1897045911094244
-0.4775257104687469	0.17172425670411057
-0.4774646753124969	0.15322868944012397
-0.4774036401562469	0.13427355309460323
-0.4773426049999969	0.114915883292548
-0.4772815698437469	0.09521401825910882
-0.4772205346874969	0.07522724830573727
-0.4771594995312469	0.05501581518532289
-0.4770984643749969	0.03464065942539365
-0.4770374292187469	0.014163161232994824
-0.4769763940624969	-0.006354879033806686
-0.4769153589062469	-0.02685158870408849
-0.4768543237499969	-0.04726509878854715
-0.4767932885937469	-0.06753379482348669
-0.4767322534374969	-0.08759644994271981
-0.4766712182812469	-0.107392448605902
-0.4766101831249969	-0.12686199503413512
-0.4765491479687469	-0.14594616822343154
-0.4764881128124969	-0.16458728274249493
-0.4764270776562469	-0.18272890079069895
-0.4763660424999969	-0.20031611415675785
-0.4763050073437469	-0.21729562841575903
-0.4762439721874969	-0.23361595855094822
-0.4761829370312469	-0.24922767216321606
-0.4761219018749969	-0.2640833065663567
-0.4760608667187469	-0.27813779729209936
-0.4759998315624969	-0.29134842685747087
-0.4759387964062469	-0.30367495375181935
-0.4758777612499969	-0.3150798967007208
-0.4758167260937469	-0.3255284470261252
-0.4757556909374969	-0.3349887084567143
-0.4756946557812469	-0.34343175121874353
-0.4756336206249969	-0.35083168595788816
-0.4755725854687469	-0.35716579698977846
-0.4755115503124969	-0.36241452477509073
-0.4754505151562469	-0.36656161649919705
-0.4753894799999969	-0.3695941395635836
-0.4753284448437469	-0.371502480035584
-0.4752674096874969	-0.3722804601748684
-0.4752063745312469	-0.37192529337945346
-0.4751453393749969	-0.3704375986495453
-0.4750843042187469	-0.3678214441690614
-0.4750232690624969	-0.364084285946301
-0.4749622339062469	-0.3592369737450982
-0.4749011987499969	-0.35329372384998475
-0.4748401635937469	-0.3462720552672307
-0.4747791284374969	-0.33819276205326304
-0.4747180932812469	-0.3290798409160029
-0.4746570581249969	-0.31896042016025233
-0.4745960229687469	-0.30786467643888754
-0.4745349878124969	-0.29582577157330203
-0.4744739526562469	-0.28287969377105504
-0.4744129174999969	-0.2690652266241821
-0.4743518823437469	-0.25442378309008795
-0.4742908471874969	-0.23899926822084175
-0.4742298120312469	-0.22283804614055505
-0.4741687768749969	-0.20598862032881007
-0.4741077417187469	-0.18850170311125472
-0.4740467065624969	-0.1704299093778079
-0.4739856714062469	-0.15182760752645313
-0.4739246362499969	-0.13275089883532468
-0.4738636010937469	-0.11325724774588704
-0.4738025659374969	-0.09340544046589222
-0.4737415307812469	-0.07325538893203555
-0.4736804956249969	-0.052867934490086026
-0.4736194604687469	-0.03230463078812759
-0.4735584253124969	-0.01162761923471944
-0.4734973901562469	0.009100561467437396
-0.4734363549999969	0.029817252224600667
-0.4733753198437469	0.050459747776017395
-0.4733142846874969	0.07096551063492883
-0.4732532495312469	0.09127250253620534
-0.4731922143749969	0.11131912210120434
-0.4731311792187469	0.13104458042140474
-0.4730701440624969	0.15038910912253556
-0.4730091089062469	0.16929388265277404
-0.4729480737499969	0.18770155776463415
-0.4728870385937469	0.2055561949646273
-0.4728260034374969	0.22280344071875044
-0.4727649682812469	0.23939088046871876
-0.4727039331249969	0.2552679730105163
-0.4726428979687469	0.2703863275146082
-0.4725818628124969	0.28469984775048607
-0.4725208276562469	0.2981648217477617
-0.4724597924999969	0.31074011657046674
-0.4723987573437469	0.3223872332085988
-0.4723377221874969	0.3330705038598012
-0.4722766870312469	0.3427571452102938
-0.4722156518749969	0.3514173516364185
-0.4721546167187469	0.35902446560350404
-0.4720935815624969	0.365554949028995
-0.4720325464062469	0.37098854881175314
-0.4719715112499969	0.3753083119292272
-0.4719104760937469	0.37850065024414414
-0.4718494409374969	0.38055539075408945
-0.4717884057812469	0.3814657820325742
-0.4717273706249969	0.3812285695297497
-0.4716663354687469	0.3798439383677187
-0.4716053003124969	0.37731557096331153
-0.4715442651562469	0.37365061372339015
-0.4714832299999969	0.36885965203400095
-0.4714221948437469	0.36295669912896505
-0.4713611596874969	0.35595913245136923
-0.4713001245312469	0.34788767060224374
-0.4712390893749969	0.33876627676788307
-0.4711780542187469	0.3286221231822081
-0.4711170190624969	0.3174854933268048
-0.4710559839062469	0.30538967806393136
-0.4709949487499969	0.2923709130615831
-0.4709339135937469	0.2784682317709897
-0.4708728784374969	0.2637233717149646
-0.4708118432812469	0.24818064642726098
-0.4707508081249969	0.23188680191914188
-0.4706897729687469	0.2148908809283636
-0.4706287378124969	0.1972440970433367
-0.4705677026562469	0.17899963544739617
-0.4705066674999969	0.1602125277917421
-0.4704456323437469	0.14093948815142252
-0.4703845971874969	0.12123870599508833
-0.4703235620312469	0.10116972029341263
-0.4702625268749969	0.08079317622718961
-0.4702014917187469	0.060170737917058466
-0.4701404565624969	0.03936478322997825
-0.4700794214062469	0.018438285616137313
-0.4700183862499969	-0.002545325371350234
-0.4699573510937469	-0.023522547488209984
-0.4698963159374969	-0.044429735601997256
-0.4698352807812469	-0.06520347933207797
-0.4697742456249969	-0.08578083633475438
