Time	Frequency
-0.5000460142187535	0.3219763736929606
-0.4999849790625035	0.3087586017040703
-0.4999239439062535	0.2945304207954712
-0.4998629087500035	0.27933956519165115
-0.4998018735937535	0.26323701292678575
-0.4997408384375035	0.24627674732711882
-0.4996798032812535	0.22851563615027562
-0.4996187681250035	0.21001323380382803
-0.4995577329687535	0.1908315308711406
-0.4994966978125035	0.1710348363801777
-0.4994356626562535	0.15068948492837345
-0.4993746275000035	0.1298636559856426
-0.4993135923437535	0.10862714031800676
-0.4992525571875035	0.08705111809167078
-0.4991915220312535	0.06520789123972429
-0.4991304868750035	0.04317066353316539
-0.4990694517187535	0.021013319828880998
-0.4990084165625035	-0.0011898922945589975
-0.4989473814062535	-0.023364516296121345
-0.4988863462500035	-0.04543619866809438
-0.4988253110937535	-0.06733094769002256
-0.4987642759375035	-0.0889753103352503
-0.4987032407812535	-0.11029667656262386
-0.4986422056250035	-0.1312235563213999
-0.4985811704687535	-0.1516856789800166
-0.4985201353125035	-0.17161438160332715
-0.4984591001562535	-0.19094279016445073
-0.4983980650000035	-0.20960595965634263
-0.4983370298437535	-0.22754124870973808
-0.4982759946875035	-0.24468837866735693
-0.4982149595312535	-0.26098972780748714
-0.4981539243750035	-0.2763905139750346
-0.4980928892187535	-0.29083893315424014
-0.4980318540625035	-0.30428637502395733
-0.4979708189062535	-0.3166875912196246
-0.4979097837500035	-0.328000834033876
-0.4978487485937535	-0.3381879598193994
-0.4977877134375035	-0.3472146378888408
-0.4977266782812535	-0.3550504183794749
-0.4976656431250035	-0.3616688150923693
-0.4976046079687535	-0.3670474453887278
-0.4975435728125035	-0.37116809455142397
-0.4974825376562535	-0.37401674132931617
-0.4974215025000035	-0.37558364135922445
-0.4973604673437535	-0.37586337325697505
-0.4972994321875035	-0.37485482230405853
-0.4972383970312535	-0.3725611988168551
-0.4971773618750035	-0.3689900501597137
-0.4971163267187535	-0.36415321553999447
-0.4970552915625035	-0.3580667810692021
-0.4969942564062535	-0.35075106186908606
-0.4969332212500035	-0.342230502554008
-0.4968721860937535	-0.3325335999436945
-0.4968111509375035	-0.3216928503953714
-0.4967501157812535	-0.3097445724723853
-0.4966890806250035	-0.29672884832404606
-0.4966280454687535	-0.282689380099481
-0.4965670103125035	-0.2676732901011238
-0.4965059751562535	-0.25173105523502254
-0.4964449400000035	-0.2349162656862534
-0.4963839048437535	-0.21728548570020548
-0.4963228696875035	-0.19889803144796525
-0.4962618345312535	-0.17981580951628076
-0.4962007993750035	-0.16010312516205932
-0.4961397642187535	-0.1398263581658827
-0.4960787290625035	-0.11905390189572501
-0.4960176939062535	-0.09785582065285889
-0.4959566587500035	-0.07630363300437021
-0.4958956235937535	-0.05447010818800282
-0.4958345884375035	-0.03242900433567632
-0.4957735532812535	-0.010254816707621761
-0.4957125181250035	0.01197751301814562
-0.4956514829687535	0.03419270279972469
-0.4955904478125035	0.0563156070671287
-0.4955294126562535	0.07827127086940673
-0.4954683775000035	0.09998524761946652
-0.4954073423437535	0.12138393822303004
-0.4953463071875035	0.14239466963261935
-0.4952852720312535	0.16294611071585466
-0.4952242368750035	0.1829683443856628
-0.4951632017187535	0.20239328707626184
-0.4951021665625035	0.22115476071697027
-0.4950411314062535	0.2391887591186457
-0.4949800962500035	0.2564337954338158
-0.4949190610937535	0.2728308399083927
-0.4948580259375035	0.28832379910148287
-0.4947969907812535	0.3028595586649995
-0.4947359556250035	0.31638813402319804
-0.4946749204687535	0.3288629830255824
-0.4946138853125035	0.3402410053716928
-0.4945528501562535	0.3504828009330667
-0.4944918150000035	0.35955275668989717
-0.4944307798437535	0.3674191676151487
-0.4943697446875035	0.37405437833800065
-0.4943087095312535	0.3794348264920569
-0.4942476743750035	0.3835411769625852
-0.4941866392187535	0.38635836165080156
-0.4941256040625035	0.3878756292989779
-0.4940645689062535	0.38808659606023926
-0.4940035337500035	0.38698927438854325
-0.4939424985937535	0.38458606466768025
-0.4938814634375035	0.38088376200960355
-0.4938204282812535	0.3758935362947071
-0.4937593931250035	0.36963089379423775
-0.4936983579687535	0.3621156303656311
-0.4936373228125035	0.3533717547888341
-0.4935762876562535	0.3434274476740689
-0.4935152525000035	0.3323149169165493
-0.4934542173437535	0.3200703246816718
-0.4933931821875035	0.30673369064184325
-0.4933321470312535	0.2923486780416394
-0.4932711118750035	0.27696255448535806
-0.4932100767187535	0.26062596875789995
-0.4931490415625035	0.24339276465593565
-0.4930880064062535	0.22531988463391955
-0.4930269712500035	0.20646711665713707
-0.4929659360937535	0.18689688000791238
-0.4929049009375035	0.1666740647036302
-0.4928438657812535	0.14586583365061206
-0.4927828306250035	0.12454129137490308
-0.4927217954687535	0.10277136202443415
-0.4926607603125035	0.08062853757767685
-0.4925997251562535	0.058186554260836236
-0.4925386900000035	0.03552022107368965
-0.4924776548437535	0.012705178081679576
-0.4924166196875035	-0.01018241182601539
-0.4923555845312535	-0.03306611232832155
-0.4922945493750035	-0.05586939693248316
-0.4922335142187535	-0.07851601577622283
-0.4921724790625035	-0.10093017460200536
-0.4921114439062535	-0.12303679148340366
-0.4920504087500035	-0.14476182268075102
-0.4919893735937535	-0.16603240498664926
-0.4919283384375035	-0.1867771842661366
-0.4918673032812535	-0.20692654722923834
-0.4918062681250035	-0.22641278416472121
-0.4917452329687535	-0.24517042947861628
-0.4916841978125035	-0.2631364008261444
-0.4916231626562535	-0.28025020592692956
-0.4915621275000035	-0.29645426268635705
-0.4915010923437535	-0.31169391852569406
-0.4914400571875035	-0.32591775953599783
-0.4913790220312535	-0.33907781388807084
-0.4913179868750035	-0.35112955780188393
-0.4912569517187535	-0.36203221378633216
-0.4911959165625035	-0.3717488675154952
-0.4911348814062535	-0.3802465084118757
-0.4910738462500035	-0.38749623085853624
-0.4910128110937535	-0.3934733320244999
-0.4909517759375035	-0.39815730642516406
-0.4908907407812535	-0.4015320300891502
-0.4908297056250035	-0.40358576927634954
-0.4907686704687535	-0.4043111687975019
-0.4907076353125035	-0.40370539101892544
-0.4906466001562535	-0.40177003978780096
-0.4905855650000035	-0.3985111695095534
-0.4905245298437535	-0.3939393151075484
-0.4904634946875035	-0.38806940236107246
-0.4904024595312535	-0.38092072592435416
-0.4903414243750035	-0.37251689433850804
-0.4902803892187535	-0.36288572675521164
-0.4902193540625035	-0.35205918813016523
-0.4901583189062535	-0.34007326545014005
-0.4900972837500035	-0.32696785121384514
-0.4900362485937535	-0.31278662609028934
-0.4899752134375035	-0.2975768845847635
-0.4899141782812535	-0.28138939929528406
-0.4898531431250035	-0.2642782610823129
-0.4897921079687535	-0.24630066003684295
-0.4897310728125035	-0.2275167142795183
-0.4896700376562535	-0.20798930832357027
-0.4896090025000035	-0.18778379688918942
-0.4895479673437535	-0.16696784849238455
-0.4894869321875035	-0.14561124691712926
-0.4894258970312535	-0.12378552991320939
-0.4893648618750035	-0.10156388352265784
-0.4893038267187535	-0.07902086391176659
-0.4892427915625035	-0.056232057537072576
-0.4891817564062535	-0.033273940618365826
-0.4891207212500035	-0.01022358834912741
-0.4890596860937535	0.012841642900082344
-0.4889986509375035	0.03584431606798369
-0.4889376157812535	0.058707164045511774
-0.4888765806250035	0.08135341967306295
-0.4888155454687535	0.10370701339412393
-0.4887545103125035	0.12569284240301312
-0.4886934751562535	0.1472370607248889
-0.4886324400000035	0.16826727670731442
-0.4885714048437535	0.18871283304156877
-0.4885103696875035	0.20850505601983219
-0.4884493345312535	0.22757742793426908
-0.4883882993750035	0.24586588935064727
-0.4883272642187535	0.26330903643256187
-0.4882662290625035	0.2798482460030188
-0.4882051939062535	0.2954280235338162
-0.4881441587500035	0.3099960909016489
-0.4880831235937535	0.3235035312992573
-0.4880220884375035	0.33590510191927486
-0.4879610532812535	0.34715923617655764
-0.4879000181250035	0.3572282495913554
-0.4878389829687535	0.3660785158688114
-0.4877779478125035	0.37368046765031193
-0.4877169126562535	0.38000881464285224
-0.4876558775000035	0.38504256243043683
-0.4875948423437535	0.3887650889516383
-0.4875338071875035	0.39116424682800927
-0.4874727720312535	0.39223234690679515
-0.4874117368750035	0.3919662316659928
-0.4873507017187535	0.3903672656182989
-0.4872896665625035	0.38744133598510944
-0.4872286314062535	0.38319883730723187
-0.4871675962500035	0.3776546364616276
-0.4871065610937535	0.37082802021763894
-0.4870455259375035	0.362742638282443
-0.4869844907812535	0.35342641737774694
-0.4869234556250035	0.34291147710335934
-0.4868624204687535	0.33123400378945
-0.4868013853125035	0.3184341510380287
-0.4867403501562535	0.3045559135537454
-0.4866793150000035	0.2896469029526354
-0.4866182798437535	0.27375831844083126
-0.4865572446875035	0.2569446562650265
-0.4864962095312535	0.23926355429482
-0.4864351743750035	0.220775685588945
-0.4863741392187535	0.20154438214246956
-0.4863131040625035	0.18163559543277577
-0.4862520689062535	0.16111758831189346
-0.4861910337500035	0.1400606396131573
-0.4861299985937535	0.11853697119073606
-0.4860689634375035	0.09662038509738045
-0.4860079282812535	0.07438596334645871
-0.4859468931250035	0.05190998947654649
-0.4858858579687535	0.029269539867969572
-0.4858248228125035	0.00654223746630273
-0.4857637876562535	-0.01619391571775241
-0.4857027525000035	-0.03886093031295746
-0.4856417173437535	-0.06138097732544766
-0.4855806821875035	-0.08367679009840526
-0.4855196470312535	-0.10567177823464176
-0.4854586118750035	-0.12729036097659527
-0.4853975767187535	-0.14845831021617548
-0.4853365415625035	-0.1691028057786716
-0.4852755064062535	-0.18915286079364688
-0.4852144712500035	-0.2085395044887837
-0.4851534360937535	-0.22719599519460223
-0.4850924009375035	-0.24505804380990842
-0.4850313657812535	-0.2620641181288393
-0.4849703306250035	-0.27815557083477466
-0.4849092954687535	-0.29327681228182817
-0.4848482603125035	-0.3073756515437194
-0.4847872251562535	-0.32040330693949937
-0.4847261900000035	-0.3323146482366158
-0.4846651548437535	-0.34306840127325094
-0.4846041196875035	-0.35262719087568134
-0.4845430845312535	-0.3609577295872384
-0.4844820493750035	-0.36803094292801053
-0.4844210142187535	-0.37382202895491556
-0.4843599790625035	-0.37831057508659266
-0.4842989439062535	-0.3814806253032267
-0.4842379087500035	-0.3833207245697533
-0.4841768735937535	-0.38382398087226355
-0.4841158384375035	-0.38298806911328986
-0.4840548032812535	-0.3808152527991234
-0.4839937681250035	-0.3773123884524732
-0.4839327329687535	-0.37249087815349563
-0.4838716978125035	-0.3663666550208857
-0.4838106626562535	-0.3589601358493593
-0.4837496275000035	-0.35029611649107095
-0.4836885923437535	-0.34040374237386173
-0.4836275571875035	-0.3293163733130574
-0.4835665220312535	-0.31707146729982194
-0.4835054868750035	-0.30371050796248766
-0.4834444517187535	-0.289278778784322
-0.4833834165625035	-0.2738253009130427
-0.4833223814062535	-0.25740261211519644
-0.4832613462500035	-0.24006656643692834
-0.4832003110937535	-0.22187625695624447
-0.4831392759375035	-0.20289366715476975
-0.4830782407812535	-0.18318354937479026
-0.4830172056250035	-0.162813233456352
-0.4829561704687535	-0.14185229866503862
-0.4828951353125035	-0.12037240737492536
-0.4828341001562535	-0.0984470548259366
-0.4827730650000035	-0.0761512992002942
-0.4827120298437535	-0.0535615271252523
-0.4826509946875035	-0.03075515473258564
-0.4825899595312535	-0.007810416544915319
-0.4825289243750035	0.015193924367024856
-0.4824678892187535	0.03817889488053063
-0.4824068540625035	0.0610654837960757
-0.4823458189062535	0.08377498610636676
-0.4822847837500035	0.10622926159570731
-0.4822237485937535	0.12835098336682355
-0.4821627134375035	0.1500639112809667
-0.4821016782812535	0.171293149708927
-0.4820406431250035	0.19196542775168826
-0.4819796079687535	0.2120093187366695
-0.4819185728125035	0.2313555014832243
-0.4818575376562535	0.24993700171520497
-0.4817965025000035	0.2676894137803269
-0.4817354673437535	0.28455113654813824
-0.4816744321875035	0.3004635612012122
-0.4816133970312535	0.31537130099471483
-0.4815523618750035	0.32922239495468736
-0.4814913267187535	0.34196839678491847
-0.4814302915625035	0.35356468509212713
-0.4813692564062535	0.3639705215827504
-0.4813082212500035	0.3731491542981105
-0.4812471860937535	0.3810681240712904
-0.4811861509375035	0.387699167901788
-0.4811251157812535	0.39301841685640554
-0.4810640806250035	0.3970065546243705
-0.4810030454687535	0.39964871125890067
-0.4809420103125035	0.4009346600214016
-0.4808809751562535	0.4008588257008716
-0.4808199400000035	0.399420241497499
-0.4807589048437535	0.39662264175572864
-0.4806978696875035	0.3924743973531743
-0.4806368345312535	0.38698851013175084
-0.4805757993750035	0.38018256277633705
-0.4805147642187535	0.37207866707209425
-0.4804537290625035	0.3627034001919132
-0.4803926939062535	0.35208768344444275
-0.4803316587500035	0.3402667213578414
-0.4802706235937535	0.32727985991241787
-0.4802095884375035	0.3131704508247722
-0.4801485532812535	0.29798571057562323
-0.4800875181250035	0.2817765819692671
-0.4800264829687535	0.2645975267377175
-0.4799654478125035	0.24650634272955307
-0.4799044126562535	0.22756402747297189
-0.4798433775000035	0.2078344963950289
-0.4797823423437535	0.18738436092165467
-0.4797213071875035	0.16628282197114214
-0.4796602720312535	0.14460129046906578
-0.4795992368750035	0.1224131672361532
-0.4795382017187535	0.09979372898901502
-0.4794771665625035	0.0768196801250843
-0.4794161314062535	0.05356902004612035
-0.4793550962500035	0.030120726098425008
-0.4792940610937535	0.006554499898083296
-0.4792330259375035	-0.017049489640830296
-0.4791719907812535	-0.040610986088665396
-0.4791109556250035	-0.06404971592988341
-0.4790499204687535	-0.08728587089292854
-0.4789888853125035	-0.11024028560839526
-0.4789278501562535	-0.13283465874149608
-0.4788668150000035	-0.15499198964197058
-0.4788057798437535	-0.17663663300481758
-0.4787447446875035	-0.19769468493654385
-0.4786837095312535	-0.2180943095137516
-0.4786226743750035	-0.23776574048504656
-0.4785616392187535	-0.2566417470459517
-0.4785006040625035	-0.27465787621414256
-0.4784395689062535	-0.2917524001773629
-0.4783785337500035	-0.3078668700240783
-0.4783174985937535	-0.32294615484528977
-0.4782564634375035	-0.3369385380780627
-0.4781954282812535	-0.3497961468946158
-0.4781343931250035	-0.3614748737692607
-0.4780733579687535	-0.3719346541724409
-0.4780123228125035	-0.3811396324047585
-0.4779512876562535	-0.38905815672884664
-0.4778902525000035	-0.3956630306883471
-0.4778292173437535	-0.40093154608790516
-0.4777681821875035	-0.4048455241622221
-0.4777071470312535	-0.407391461438118
-0.4776461118750035	-0.4085605302808217
-0.4775850767187535	-0.4083486059765737
-0.4775240415625035	-0.4067563106125911
-0.4774630064062535	-0.4037889960528901
-0.4774019712500035	-0.39945672883881117
-0.4773409360937535	-0.3937742613943706
-0.4772799009375035	-0.3867609796274891
-0.4772188657812535	-0.37844084499661435
-0.4771578306250035	-0.3688423108432853
-0.4770967954687535	-0.35799820641245883
-0.4770357603125035	-0.34594568130920594
-0.4769747251562535	-0.3327260135087136
-0.4769136900000035	-0.31838448935264174
-0.4768526548437535	-0.3029703139633027
-0.4767916196875035	-0.2865363157465083
-0.4767305845312535	-0.26913887950907606
-0.4766695493750035	-0.2508377434670318
-0.4766085142187535	-0.23169566994091265
-0.4765474790625035	-0.21177842983452413
-0.4764864439062535	-0.1911544136070825
-0.4764254087500035	-0.169894454559776
-0.4763643735937535	-0.1480716335492033
-0.4763033384375035	-0.12576090677566712
-0.4762423032812535	-0.10303902070611744
-0.4761812681250035	-0.07998403995286611
-0.4761202329687535	-0.056675293374745465
-0.4760591978125035	-0.03319293372238735
-0.4759981626562535	-0.009617712777720354
-0.4759371275000035	0.013969160935765036
-0.4758760923437535	0.03748664063859602
-0.4758150571875035	0.0608536944101403
-0.4757540220312535	0.08398989214415505
-0.4756929868750035	0.10681563972137241
-0.4756319517187535	0.12925225425567202
-0.4755709165625035	0.15122252527343
-0.4755098814062535	0.17265076519408945
-0.4754488462500035	0.19346314732771183
-0.4753878110937535	0.2135879859272015
-0.4753267759375035	0.23295595615654957
-0.4752657407812535	0.25150030122460787
-0.4752047056250035	0.2691571218870661
-0.4751436704687535	0.28586560705862357
-0.4750826353125035	0.30156814107868946
-0.4750216001562535	0.31621063677822053
-0.4749605650000035	0.3297426514810895
-0.4748995298437535	0.3421175403905803
-0.4748384946875035	0.35329269912665917
-0.4747774595312535	0.3632296441475587
-0.4747164243750035	0.3718941583951823
-0.4746553892187535	0.37925644701274375
-0.4745943540625035	0.3852912104773857
-0.4745333189062535	0.3899777309223847
-0.4744722837500035	0.3932999628020317
-0.4744112485937535	0.3952465937949662
-0.4743502134375035	0.3958110607763571
-0.4742891782812535	0.39499159074136614
-0.4742281431250035	0.39279121666950456
-0.4741671079687535	0.3892177578567336
-0.4741060728125035	0.38428378186540035
-0.4740450376562535	0.37800659682784177
-0.4739840025000035	0.3704081694656987
-0.4739229673437535	0.3615150376697428
-0.4738619321875035	0.35135827006954407
-0.4738008970312535	0.3399732973689239
-0.4737398618750035	0.32739984461673766
-0.4736788267187535	0.3136817593404149
-0.4736177915625035	0.29886687482843477
-0.4735567564062535	0.2830068664660128
-0.4734957212500035	0.2661570298243097
-0.4734346860937535	0.2483761151401469
-0.4733736509375035	0.22972613500344577
-0.4733126157812535	0.21027216254826123
-0.4732515806250035	0.1900820063682874
-0.4731905454687535	0.16922614738762648
-0.4731295103125035	0.14777736887349327
-0.4730684751562535	0.12581046465824322
-0.4730074400000035	0.10340219796754299
-0.4729464048437535	0.08063077569415301
-0.4728853696875035	0.05757571299635488
-0.4728243345312535	0.03431759349603303
-0.4727632993750035	0.010937676245178655
-0.4727022642187535	-0.01248231073804384
-0.4726412290625035	-0.03586046626015869
-0.4725801939062535	-0.05911499397440388
-0.4725191587500035	-0.08216452755583203
-0.4724581235937535	-0.10492835816008969
-0.4723970884375035	-0.12732676281570268
-0.4723360532812535	-0.1492812449500515
-0.4722750181250035	-0.17071481648069997
-0.4722139829687535	-0.19155231251275875
-0.4721529478125035	-0.2117205696823297
-0.4720919126562535	-0.23114872849592602
-0.4720308775000035	-0.24976853274611024
-0.4719698423437535	-0.26751445193908346
-0.4719088071875035	-0.2843239849912356
-0.4718477720312535	-0.3001379117255826
-0.4717867368750035	-0.31490039941356246
-0.4717257017187535	-0.3285592878464906
-0.4716646665625035	-0.34106622644269513
-0.4716036314062535	-0.3523768755529776
-0.4715425962500035	-0.3624510173262892
-0.4714815610937535	-0.3712527513607153
-0.4714205259375035	-0.37875060238011893
-0.4713594907812535	-0.3849175810057433
-0.4712984556250035	-0.3897313900618004
-0.4712374204687535	-0.39317438950007055
-0.4711763853125035	-0.3952337312136969
-0.4711153501562535	-0.3959013964625034
-0.4710543150000035	-0.395174192604977
-0.4709932798437535	-0.39305381371732473
-0.4709322446875035	-0.3895468003877645
-0.4708712095312535	-0.3846645411046905
-0.4708101743750035	-0.37842322372378234
-0.4707491392187535	-0.37084379031899417
-0.4706881040625035	-0.36195186255634526
-0.4706270689062535	-0.3517776475865261
-0.4705660337500035	-0.3403558607874063
-0.4705049985937535	-0.3277255699560167
-0.4704439634375035	-0.3139300892039639
-0.4703829282812535	-0.2990168411486983
-0.4703218931250035	-0.28303713679448433
-0.4702608579687535	-0.2660460734082043
-0.4701998228125035	-0.24810231219284648
-0.4701387876562535	-0.22926782268544088
-0.4700777525000035	-0.2096077825576143
-0.4700167173437535	-0.18919027218883117
-0.4699556821875035	-0.1680860054930884
-0.4698946470312535	-0.14636820760836414
-0.4698336118750035	-0.12411225678323469
-0.4697725767187535	-0.10139544367400465
