Time	Frequency
-0.5000529626250056	-0.34174931883665266
-0.49999192746875565	-0.31503842118855196
-0.49993089231250565	-0.2865465502047456
-0.49986985715625565	-0.25643652730992805
-0.49980882200000565	-0.22488049812672695
-0.49974778684375565	-0.1920590237123487
-0.49968675168750565	-0.15815988808390938
-0.49962571653125565	-0.12337708538173654
-0.49956468137500565	-0.08790986222372249
-0.49950364621875565	-0.051961297669195314
-0.49944261106250565	-0.015737268271743415
-0.49938157590625565	0.020554573010226767
-0.49932054075000565	0.0567063221785247
-0.49925950559375565	0.09251081583944898
-0.49919847043750565	0.12776274694700612
-0.49913743528125565	0.1622600663507032
-0.49907640012500565	0.1958050257555826
-0.49901536496875565	0.22820530499343863
-0.49895432981250565	0.25927513914941375
-0.49889329465625565	0.28883641610319055
-0.49883225950000565	0.3167197139817692
-0.49877122434375565	0.34276520542186817
-0.49871018918750565	0.36682365712463233
-0.49864915403125565	0.3887572983006205
-0.49858811887500565	0.4084405340633637
-0.49852708371875565	0.42576075442848266
-0.49846604856250565	0.4406189775688702
-0.49840501340625565	0.4529303730160773
-0.49834397825000565	0.46262482915823916
-0.49828294309375565	0.46964730668104004
-0.49822190793750565	0.47395816424104475
-0.49816087278125565	0.47553344118779617
-0.49809983762500565	0.47436494470183327
-0.49803880246875565	0.47046031562308177
-0.49797776731250565	0.4638430202803651
-0.49791673215625565	0.45455218933939184
-0.49785569700000565	0.4426423752756692
-0.49779466184375565	0.4281833195201824
-0.49773362668750565	0.41125947805428664
-0.49767259153125565	0.3919695245832311
-0.49761155637500565	0.3704259303813177
-0.49755052121875565	0.346754107788651
-0.49748948606250565	0.3210917988664359
-0.49742845090625565	0.2935884007111697
-0.49736741575000565	0.26440381426011295
-0.49730638059375565	0.2337077705494112
-0.49724534543750565	0.20167883792296024
-0.49718431028125565	0.16850315577998018
-0.49712327512500565	0.1343736687063955
-0.49706223996875565	0.09948886160535267
-0.49700120481250565	0.06405150569787671
-0.49694016965625565	0.028267765975586327
-0.49687913450000565	-0.007654290471799359
-0.49681809934375565	-0.04350572265118161
-0.49675706418750565	-0.07907788764781477
-0.49669602903125565	-0.11416391131847672
-0.49663499387500565	-0.14855950970874374
-0.49657395871875565	-0.18206446940492815
-0.49651292356250565	-0.21448376324039034
-0.49645188840625565	-0.24562847739931903
-0.49639085325000565	-0.2753172028829238
-0.49632981809375565	-0.303376910282381
-0.49626878293750565	-0.32964395230109933
-0.49620774778125565	-0.3539651056956234
-0.49614671262500565	-0.3761984091228355
-0.49608567746875565	-0.39621400630954345
-0.49602464231250565	-0.4138948719952361
-0.49596360715625565	-0.4291375498671374
-0.49590257200000565	-0.4418527512009906
-0.49584153684375565	-0.45196580171761885
-0.49578050168750565	-0.45941718945007415
-0.49571946653125565	-0.46416286238305915
-0.49565843137500565	-0.4661744690532836
-0.49559739621875565	-0.4654395936295334
-0.49553636106250565	-0.4619617712236536
-0.49547532590625565	-0.4557605108884859
-0.49541429075000565	-0.44687119247222795
-0.49535325559375565	-0.4353448504254014
-0.49529222043750565	-0.42124787417967224
-0.49523118528125565	-0.40466168163185
-0.49517015012500565	-0.385682209321676
-0.49510911496875565	-0.36441932762481594
-0.49504807981250565	-0.3409963427085249
-0.49498704465625565	-0.3155491134911284
-0.49492600950000565	-0.288225387774791
-0.49486497434375565	-0.259183954505179
-0.49480393918750565	-0.22859355742756926
-0.49474290403125565	-0.1966322461019875
-0.49468186887500565	-0.1634859962307662
-0.49462083371875565	-0.1293477569259737
-0.49455979856250565	-0.0944165639946726
-0.49449876340625565	-0.05889597160397675
-0.49443772825000565	-0.022993164372755538
-0.49437669309375565	0.013082323901043212
-0.49431565793750565	0.0491198208876505
-0.49425462278125565	0.08490874467577444
-0.49419358762500565	0.12023993026882777
-0.49413255246875565	0.15490661777302428
-0.49407151731250565	0.1887058587194649
-0.49401048215625565	0.22143961941511017
-0.49394944700000565	0.25291595073628276
-0.49388841184375565	0.2829501199838945
-0.49382737668750565	0.31136561184017364
-0.49376634153125565	0.33799526065026547
-0.49370530637500565	0.3626822409651688
-0.49364427121875565	0.38528084958910214
-0.49358323606250565	0.405657444018485
-0.49352220090625565	0.4236913483199039
-0.49346116575000565	0.4392752922818661
-0.49340013059375565	0.45231627666828933
-0.49333909543750565	0.46273605239124355
-0.49327806028125565	0.4704714969243823
-0.49321702512500565	0.4754751784309523
-0.49315598996875565	0.4777154331263407
-0.49309495481250565	0.4771766882209241
-0.49303391965625565	0.4738595777886906
-0.49297288450000565	0.4677808332903792
-0.49291184934375565	0.4589733029406732
-0.49285081418750565	0.4474857411388666
-0.49278977903125565	0.43338249720300537
-0.49272874387500565	0.41674322196689567
-0.49266770871875565	0.39766233480458496
-0.49260667356250565	0.3762485311481454
-0.49254563840625565	0.352624185451934
-0.49248460325000565	0.32692455675873927
-0.49242356809375565	0.29929711077046584
-0.49236253293750565	0.2699005766702392
-0.49230149778125565	0.23890413831785565
-0.49224046262500565	0.20648636835170806
-0.49217942746875565	0.1728341471882501
-0.49211839231250565	0.13814181057977587
-0.49205735715625565	0.10260974421452178
-0.49199632200000565	0.06644336243345203
-0.49193528684375565	0.029851956116919938
-0.49187425168750565	-0.006952673387514054
-0.49181321653125565	-0.043757234589187656
-0.49175218137500565	-0.0803483896504084
-0.49169114621875565	-0.11651394916665825
-0.49163011106250565	-0.15204392689658938
-0.49156907590625565	-0.18673202736078112
-0.49150804075000565	-0.22037670115368355
-0.49144700559375565	-0.2527823178395149
-0.49138597043750565	-0.2837603862869455
-0.49132493528125565	-0.3131305285197325
-0.49126390012500565	-0.3407217114021003
-0.49120286496875565	-0.36637309790465766
-0.49114182981250565	-0.38993500199521114
-0.49108079465625565	-0.4112698850309638
-0.49101975950000565	-0.4302530609973997
-0.49095872434375565	-0.4467734017403355
-0.49089768918750565	-0.46073406522325067
-0.49083665403125565	-0.4720531184459903
-0.49077561887500565	-0.4806638443936364
-0.49071458371875565	-0.4865152522191038
-0.49065354856250565	-0.48957245841226255
-0.49059251340625565	-0.4898167259930805
-0.49053147825000565	-0.48724568616949404
-0.49047044309375565	-0.4818733701630465
-0.49040940793750565	-0.47373006116067606
-0.49034837278125565	-0.46286222295746837
-0.49028733762500565	-0.4493321374717034
-0.49022630246875565	-0.43321760783688446
-0.49016526731250565	-0.4146115384549437
-0.49010423215625565	-0.39362130582632293
-0.49004319700000565	-0.3703682367108562
-0.48998216184375565	-0.3449868321700057
-0.48992112668750565	-0.3176240624579827
-0.48986009153125565	-0.28843847206259704
-0.48979905637500565	-0.2575991917142751
-0.48973802121875565	-0.22528511467445167
-0.48967698606250565	-0.1916837641652668
-0.48961595090625565	-0.15699015009831704
-0.48955491575000565	-0.12140573101736402
-0.48949388059375565	-0.08513722599864267
-0.48943284543750565	-0.048395331158409625
-0.48937181028125565	-0.01139359098948724
-0.48931077512500565	0.025652884407484706
-0.48924973996875565	0.06252873255404283
-0.48918870481250565	0.09901948432687505
-0.48912766965625565	0.1349129180747057
-0.48906663450000565	0.17000023350984617
-0.48900559934375565	0.20407730859996887
-0.48894456418750565	0.23694592085877672
-0.48888352903125565	0.268414771862609
-0.48882249387500565	0.29830079876627325
-0.48876145871875565	0.32643017053751566
-0.48870042356250565	0.35263918460970184
-0.48863938840625565	0.3767753899018492
-0.48857835325000565	0.3986985119668891
-0.48851731809375565	0.41828107065683173
-0.48845628293750565	0.4354092728431459
-0.48839524778125565	0.4499837548134489
-0.48833421262500565	0.461919965507622
-0.48827317746875565	0.4711488485489459
-0.48821214231250565	0.4776171523002834
-0.48815110715625565	0.48128776896205566
-0.48809007200000565	0.48214000729998746
-0.48802903684375565	0.480169616172682
-0.48796800168750565	0.4753889163223057
-0.48790696653125565	0.46782668140830413
-0.48784593137500565	0.457527987876188
-0.48778489621875565	0.44455393418326117
-0.48772386106250565	0.4289813366898316
-0.48766282590625565	0.41090225973689426
-0.48760179075000565	0.39042341673806724
-0.48754075559375565	0.3676656804624174
-0.48747972043750565	0.3427633122379136
-0.48741868528125565	0.31586307429010774
-0.48735765012500565	0.2871235684115793
-0.48729661496875565	0.2567142486700713
-0.48723557981250565	0.2248142580235046
-0.48717454465625565	0.19161159286723933
-0.48711350950000565	0.1573020050416746
-0.48705247434375565	0.12208767345997004
-0.48699143918750565	0.08617608886469283
-0.48693040403125565	0.04977901775626279
-0.48686936887500565	0.013111047214761615
-0.48680833371875565	-0.02361168631572779
-0.48674729856250565	-0.06017259180439722
-0.48668626340625565	-0.09635600385634382
-0.48662522825000565	-0.13194845556779264
-0.48656419309375565	-0.16673993873572118
-0.48650315793750565	-0.20052509020060277
-0.48644212278125565	-0.23310441214577282
-0.48638108762500565	-0.26428550108820426
-0.48632005246875565	-0.2938841394966074
-0.48625901731250565	-0.32172537120872846
-0.48619798215625565	-0.3476445547657013
-0.48613694700000565	-0.3714883452900685
-0.48607591184375565	-0.3931155895434779
-0.48601487668750565	-0.41239813403911274
-0.48595384153125565	-0.4292216493003329
-0.48589280637500565	-0.443486259156671
-0.48583177121875565	-0.4551071115538394
-0.48577073606250565	-0.46401498114067485
-0.48570970090625565	-0.4701565903881031
-0.48564866575000565	-0.4734949395470308
-0.48558763059375565	-0.47400959883194604
-0.48552659543750565	-0.4716967772372601
-0.48546556028125565	-0.4665693455853567
-0.48540452512500565	-0.45865682305962185
-0.48534348996875565	-0.4480051551194679
-0.48528245481250565	-0.43467647818942956
-0.48522141965625565	-0.41874878140260063
-0.48516038450000565	-0.40031537763866504
-0.48509934934375565	-0.3794844642509408
-0.48503831418750565	-0.356378429640305
-0.48497727903125565	-0.3311331225359595
-0.48491624387500565	-0.30389712656105766
-0.48485520871875565	-0.27483081176605356
-0.48479417356250565	-0.2441054824464719
-0.48473313840625565	-0.21190228121581542
-0.48467210325000565	-0.17841115711776048
-0.48461106809375565	-0.14382985892956968
-0.48455003293750565	-0.10836253676654603
-0.48448899778125565	-0.07221876456953029
-0.48442796262500565	-0.035612277466426756
-0.48436692746875565	0.0012405169612466835
-0.48430589231250565	0.038121448324275484
-0.48424485715625565	0.07481214042247587
-0.48418382200000565	0.11109528319139676
-0.48412278684375565	0.146755692120452
-0.48406175168750565	0.1815818950697517
-0.48400071653125565	0.21536712240496436
-0.48393968137500565	0.24791065496719228
-0.48387864621875565	0.27901902621690994
-0.48381761106250565	0.30850705351015156
-0.48375657590625565	0.3361991096094189
-0.48369554075000565	0.36192996712522096
-0.48363450559375565	0.3855459280097768
-0.48357347043750565	0.40690572035267675
-0.48351243528125565	0.42588124055950405
-0.48345140012500565	0.4423584082461077
-0.48339036496875565	0.4562378507903024
-0.48332932981250565	0.467435454734661
-0.48326829465625565	0.47588285619963133
-0.48320725950000565	0.48152793319008913
-0.48314622434375565	0.48433505627187895
-0.48308518918750565	0.48428532072551506
-0.48302415403125565	0.4813766813708437
-0.48296311887500565	0.4756239707504628
-0.48290208371875565	0.46705882416681255
-0.48284104856250565	0.4557294895250119
-0.48278001340625565	0.4417005562860628
-0.48271897825000565	0.42505261034703135
-0.48265794309375565	0.4058817432540764
-0.48259690793750565	0.38429896394012836
-0.48253587278125565	0.36042962244365934
-0.48247483762500565	0.33441266424331323
-0.48241380246875565	0.30639972831517637
-0.48235276731250565	0.27655435374137366
-0.48229173215625565	0.2450510612213205
-0.48223069700000565	0.21207415361147855
-0.48216966184375565	0.17781682942438579
-0.48210862668750565	0.14247991423526457
-0.48204759153125565	0.10627071187251469
-0.48198655637500565	0.06940191164965104
-0.48192552121875565	0.03209005419675806
-0.48186448606250565	-0.005445497772550281
-0.48180345090625565	-0.042983863101931405
-0.48174241575000565	-0.08030411081948867
-0.48168138059375565	-0.11718649050446159
-0.48162034543750565	-0.1534136115367057
-0.48155931028125565	-0.1887718508818272
-0.48149827512500565	-0.22305268007962467
-0.48143723996875565	-0.2560537432132895
-0.48137620481250565	-0.2875800703155887
-0.48131516965625565	-0.3174453971935566
-0.48125413450000565	-0.3454731722176905
-0.48119309934375565	-0.3714974062549832
-0.48113206418750565	-0.39536406044910033
-0.48107102903125565	-0.4169317065945685
-0.48100999387500565	-0.43607225868887284
-0.48094895871875565	-0.4526720970804892
-0.48088792356250565	-0.4666324184648923
-0.48082688840625565	-0.47786996274730925
-0.48076585325000565	-0.4863175550080842
-0.48070481809375565	-0.4919243729566932
-0.48064378293750565	-0.4946564234422758
-0.48058274778125565	-0.49449661439764164
-0.48052171262500565	-0.4914449169796528
-0.48046067746875565	-0.4855184108775401
-0.48039964231250565	-0.47675112148834714
-0.48033860715625565	-0.4651938679823569
-0.48027757200000565	-0.45091397546376394
-0.48021653684375565	-0.4339948700150981
-0.48015550168750565	-0.4145355543597608
-0.48009446653125565	-0.3926501601309013
-0.48003343137500565	-0.3684671040451063
-0.47997239621875565	-0.3421284181289982
-0.47991136106250565	-0.31378903993496443
-0.47985032590625565	-0.2836156183187004
-0.47978929075000565	-0.25178575054018093
-0.47972825559375565	-0.2184869817139294
-0.47966722043750565	-0.18391544587154043
-0.47960618528125565	-0.1482748741268205
-0.47954515012500565	-0.11177556329473609
-0.47948411496875565	-0.07463267155753062
-0.47942307981250565	-0.03706533902411514
-0.47936204465625565	0.0007045139747478475
-0.47930100950000565	0.03845415899132936
-0.47923997434375565	0.07596058248242224
-0.47917893918750565	0.11300215715597814
-0.47911790403125565	0.1493602713968467
-0.47905686887500565	0.1848199555829989
-0.47899583371875565	0.21917166748514605
-0.47893479856250565	0.25221243168615437
-0.47887376340625565	0.28374689337141934
-0.47881272825000565	0.3135886750997173
-0.47875169309375565	0.3415612927665139
-0.47869065793750565	0.3674993770280461
-0.47862962278125565	0.39124960680753573
-0.47856858762500565	0.4126715331183806
-0.47850755246875565	0.4316385482765604
-0.47844651731250565	0.4480385363970532
-0.47838548215625565	0.4617746431117542
-0.47832444700000565	0.47276578617226667
-0.47826341184375565	0.4809471056096922
-0.47820237668750565	0.4862705116108551
-0.47814134153125565	0.4887048036234272
-0.47808030637500565	0.4882359336389103
-0.47801927121875565	0.4848671319514532
-0.47795823606250565	0.47861884491193796
-0.47789720090625565	0.46952861456761175
-0.47783616575000565	0.4576508796508501
-0.47777513059375565	0.44305671936602714
-0.47771409543750565	0.42583328464589115
-0.47765306028125565	0.4060834212225498
-0.47759202512500565	0.3839250610539627
-0.47753098996875565	0.3594904201804592
-0.47746995481250565	0.3329252828725559
-0.47740891965625565	0.30438820914123477
-0.47734788450000565	0.2740494870222573
-0.47728684934375565	0.2420900763597174
-0.47722581418750565	0.20870081292466292
-0.47716477903125565	0.17408093033767957
-0.47710374387500565	0.1384370188009318
-0.47704270871875565	0.10198199173635347
-0.47698167356250565	0.06493343263673194
-0.47692063840625565	0.02751259654318846
-0.47685960325000565	-0.010056938550602405
-0.47679856809375565	-0.047550766248718436
-0.47673753293750565	-0.08474480693357025
-0.47667649778125565	-0.12141676073148364
-0.47661546262500565	-0.15734736552713935
-0.47655442746875565	-0.19232168737931304
-0.47649339231250565	-0.226130576281864
-0.47643235715625565	-0.258571672838773
-0.47637132200000565	-0.28945069178301097
-0.47631028684375565	-0.3185827813104454
-0.47624925168750565	-0.3457933447381262
-0.47618821653125565	-0.3709192068883507
-0.47612718137500565	-0.3938097080707694
-0.47606614621875565	-0.4143273773543176
-0.47600511106250565	-0.4323489204952364
-0.47594407590625565	-0.4477659766858163
-0.47588304075000565	-0.46048563005862886
-0.47582200559375565	-0.47043108978667114
-0.47576097043750565	-0.47754216114010184
-0.47569993528125565	-0.4817755190681983
-0.47563890012500565	-0.48310504678946126
-0.47557786496875565	-0.48152201180265936
-0.47551682981250565	-0.47703505753143444
-0.47545579465625565	-0.4696702202339118
-0.47539475950000565	-0.4594707615242939
-0.47533372434375565	-0.44649691299332606
-0.47527268918750565	-0.43082553424355524
-0.47521165403125565	-0.4125496407927764
-0.47515061887500565	-0.39177790321046135
-0.47508958371875565	-0.3686339627296864
-0.47502854856250565	-0.3432556665509278
-0.47496751340625565	-0.31579438875870297
-0.47490647825000565	-0.28641395722959134
-0.47484544309375565	-0.25528977344051385
-0.47478440793750565	-0.22260785517817763
-0.47472337278125565	-0.18856346684015804
-0.47466233762500565	-0.15336026452782273
-0.47460130246875565	-0.11720891858724779
-0.47454026731250565	-0.08032577909997621
-0.47447923215625565	-0.04293184569611675
-0.47441819700000565	-0.0052511666590711785
-0.47435716184375565	0.0324903630934593
-0.47429612668750565	0.07006625469885824
-0.47423509153125565	0.10725107166736826
-0.47417405637500565	0.1438214503080571
-0.47411302121875565	0.1795575825486245
-0.47405198606250565	0.2142447617366428
-0.47399095090625565	0.24767412098000915
-0.47392991575000565	0.27964436885486266
-0.47386888059375565	0.3099629736137051
-0.47380784543750565	0.33844690022290663
-0.47374681028125565	0.36492420702045597
-0.47368577512500565	0.38923485311931755
-0.47362473996875565	0.4112315585256363
-0.47356370481250565	0.43078096052270987
-0.47350266965625565	0.4477642113529328
-0.47344163450000565	0.4620777258221648
-0.47338059934375565	0.4736339483549769
-0.47331956418750565	0.4823616954209691
-0.47325852903125565	0.4882066940475474
-0.47319749387500565	0.49113198201863334
-0.47313645871875565	0.4911179609350673
-0.47307542356250565	0.48816267122314894
-0.47301438840625565	0.48228179199423515
-0.47295335325000565	0.473508487475055
-0.47289231809375565	0.4618932839688296
-0.47283128293750565	0.4475037688871849
-0.47277024778125565	0.4304241786377445
-0.47270921262500565	0.4107548896072083
-0.47264817746875565	0.38861188486997694
-0.47258714231250565	0.36412600451992866
-0.47252610715625565	0.3374422098480425
-0.47246507200000565	0.3087187026781378
-0.47240403684375565	0.27812599127720694
-0.47234300168750565	0.24584589904403656
-0.47228196653125565	0.2120704291238552
-0.47222093137500565	0.17700069672696664
-0.47215989621875565	0.14084562375324314
-0.47209886106250565	0.10382078926365917
-0.47203782590625565	0.06614712612487897
-0.47197679075000565	0.028049531196795006
-0.47191575559375565	-0.010244427703679514
-0.47185472043750565	-0.048505833085674355
-0.47179368528125565	-0.0865058844331155
-0.47173265012500565	-0.1240172475507369
-0.47167161496875565	-0.1608152497996539
-0.47161057981250565	-0.19667957147090093
-0.47154954465625565	-0.23139526236351252
-0.47148850950000565	-0.26475402770420275
-0.47142747434375565	-0.29655587683207224
-0.47136643918750565	-0.32660980615043905
-0.47130540403125565	-0.35473517621149686
-0.47124436887500565	-0.3807630558498285
-0.47118333371875565	-0.40453673409299734
-0.47112229856250565	-0.4259129878323849
-0.47106126340625565	-0.44476306116850023
-0.47100022825000565	-0.46097306246688213
-0.47093919309375565	-0.47444493895767975
-0.47087815793750565	-0.4850970770387375
-0.47081712278125565	-0.4928646189790689
-0.47075608762500565	-0.49770001367267336
-0.47069505246875565	-0.49957328784431065
-0.47063401731250565	-0.49847217460349524
-0.47057298215625565	-0.49440224411597483
-0.47051194700000565	-0.48738688427282684
-0.47045091184375565	-0.4774671400432789
