Time	Frequency
-0.500016689656249	8.285067721415573e-25
-0.499955654499999	9.03199600531663e-25
-0.499894619343749	9.75354248541245e-25
-0.499833584187499	1.0447548837383748e-24
-0.499772549031249	1.1111931196144868e-24
-0.499711513874999	1.1744699127849101e-24
-0.499650478718749	1.2343953226884862e-24
-0.499589443562499	1.2907889503438275e-24
-0.499528408406249	1.3434815249561353e-24
-0.499467373249999	1.3923140801489456e-24
-0.499406338093749	1.4371393063049396e-24
-0.499345302937499	1.4778219353348239e-24
-0.499284267781249	1.5142386324605826e-24
-0.499223232624999	1.5462789728151402e-24
-0.499162197468749	1.5738454782039763e-24
-0.499101162312499	1.5968538047297095e-24
-0.499040127156249	1.6152333388198367e-24
-0.498979091999999	1.6289271564509727e-24
-0.498918056843749	1.637892207512186e-24
-0.498857021687499	1.6420996554335845e-24
-0.498795986531249	1.641534695045591e-24
-0.498734951374999	1.6361968308226029e-24
-0.498673916218749	1.6260997573818296e-24
-0.498612881062499	1.611271366777764e-24
-0.498551845906249	1.5917536795922965e-24
-0.498490810749999	1.5676026941977518e-24
-0.498429775593749	1.5388882946859676e-24
-0.498368740437499	1.5056939059450806e-24
-0.498307705281249	1.468116475533493e-24
-0.498246670124999	1.4262659717851628e-24
-0.498185634968749	1.3802651081667428e-24
-0.498124599812499	1.3302491959304867e-24
-0.498063564656249	1.2763653968637737e-24
-0.498002529499999	1.2187724738654829e-24
-0.497941494343749	1.1576405452213493e-24
-0.497880459187499	1.0931500099768503e-24
-0.497819424031249	1.0254915126884454e-24
-0.497758388874999	9.548654093244977e-25
-0.497697353718749	8.81480524194211e-25
-0.497636318562499	8.055544059958688e-25
-0.497575283406249	7.2731212505369165e-25
-0.497514248249999	6.469855339447044e-25
-0.497453213093749	5.648131525892829e-25
-0.497392177937499	4.810387335133828e-25
-0.497331142781249	3.959110848480479e-25
-0.497270107624999	3.0968310156815435e-25
-0.497209072468749	2.226108661979852e-25
-0.497148037312499	1.3495339637510184e-25
-0.497087002156249	4.6971089630132385e-26
-0.497025966999999	-4.107426173429039e-26
-0.496964931843749	-1.2892079763863175e-25
-0.496903896687499	-2.163072360868694e-25
-0.496842861531249	-3.029732790221038e-25
-0.496781826374999	-3.8866131559375774e-25
-0.496720791218749	-4.73115998183515e-25
-0.496659756062499	-5.56086041190657e-25
-0.496598720906249	-6.373243647722017e-25
-0.496537685749999	-7.1658900066618535e-25
-0.496476650593749	-7.936440948086714e-25
-0.496415615437499	-8.682599280027735e-25
-0.496354580281249	-9.402145596127048e-25
-0.496293545124999	-1.0092935671594397e-24
-0.496232509968749	-1.0752913104479173e-24
-0.496171474812499	-1.1380114380062637e-24
-0.496110439656249	-1.1972670940986894e-24
-0.496049404499999	-1.2528821146220957e-24
-0.495988369343749	-1.304691084410736e-24
-0.495927334187499	-1.3525398664163667e-24
-0.495866299031249	-1.3962864734705405e-24
-0.495805263874999	-1.4358009813492854e-24
-0.495744228718749	-1.4709661992660728e-24
-0.495683193562499	-1.5016780949546046e-24
-0.495622158406249	-1.5278458666121237e-24
-0.495561123249999	-1.5493924502441835e-24
-0.495500088093749	-1.5662545879465318e-24
-0.495439052937499	-1.5783832127414768e-24
-0.495378017781249	-1.5857433570660278e-24
-0.495316982624999	-1.588314462239328e-24
-0.495255947468749	-1.5860904186493942e-24
-0.495194912312499	-1.5790794519122787e-24
-0.495133877156249	-1.5673042756001163e-24
-0.495072841999999	-1.5508019396153997e-24
-0.495011806843749	-1.5296237296630322e-24
-0.494950771687499	-1.5038350086179794e-24
-0.494889736531249	-1.473515115918064e-24
-0.494828701374999	-1.4387569766311435e-24
-0.494767666218749	-1.3996669512768566e-24
-0.494706631062499	-1.3563645260657541e-24
-0.494645595906249	-1.3089818167749482e-24
-0.494584560749999	-1.2576633961444024e-24
-0.494523525593749	-1.202565610795995e-24
-0.494462490437499	-1.1438563652541085e-24
-0.494401455281249	-1.081714433346455e-24
-0.494340420124999	-1.0163289483805407e-24
-0.494279384968749	-9.47899051759895e-25
-0.494218349812499	-8.766328864368283e-25
-0.494157314656249	-8.027473911650187e-25
-0.494096279499999	-7.264674317466298e-25
-0.494035244343749	-6.480251111930298e-25
-0.493974209187499	-5.67659111609454e-25
-0.493913174031249	-4.856141334860293e-25
-0.493852138874999	-4.0213986528149324e-25
-0.493791103718749	-3.174903605355806e-25
-0.493730068562499	-2.3192352845807927e-25
-0.493669033406249	-1.4569982785906138e-25
-0.493607998249999	-5.908196149100726e-26
-0.493546963093749	2.766618228272689e-26
-0.493485927937499	1.1428013895700844e-25
-0.493424892781249	2.0049594273888723e-25
-0.493363857624999	2.8605062115758138e-25
-0.493302822468749	3.7068307983531202e-25
-0.493241787312499	4.541351901882454e-25
-0.493180752156249	5.361519548536349e-25
-0.493119716999999	6.164829537015119e-25
-0.493058681843749	6.948825855529336e-25
-0.492997646687499	7.711111795435775e-25
-0.492936611531249	8.449354312566801e-25
-0.492875576374999	9.161291910174801e-25
-0.492814541218749	9.844745357743432e-25
-0.492753506062499	1.049761612010622e-24
-0.492692470906249	1.1117901111942805e-24
-0.492631435749999	1.1703694865124973e-24
-0.492570400593749	1.225319372107951e-24
-0.492509365437499	1.2764706159086115e-24
-0.492448330281249	1.3236652953724054e-24
-0.492387295124999	1.366757508276781e-24
-0.492326259968749	1.405613838068499e-24
-0.492265224812499	1.4401134466513847e-24
-0.492204189656249	1.4701488489934992e-24
-0.492143154499999	1.495626013585586e-24
-0.492082119343749	1.5164645870061692e-24
-0.492021084187499	1.5325984461052987e-24
-0.491960049031249	1.5439755716918283e-24
-0.491899013874999	1.550558387760218e-24
-0.491837978718749	1.5523239198721486e-24
-0.491776943562499	1.549263705946249e-24
-0.491715908406249	1.5413840177546665e-24
-0.491654873249999	1.5287056978844075e-24
-0.491593838093749	1.5112642029728102e-24
-0.491532802937499	1.4891094690599255e-24
-0.491471767781249	1.4623057329567308e-24
-0.491410732624999	1.4309314433050911e-24
-0.491349697468749	1.3950788942488688e-24
-0.491288662312499	1.354854103392126e-24
-0.491227627156249	1.3103763573748265e-24
-0.491166591999999	1.2617779338466845e-24
-0.491105556843749	1.2092037923919176e-24
-0.491044521687499	1.1528108431547454e-24
-0.490983486531249	1.0927679078426384e-24
-0.490922451374999	1.0292548881183325e-24
-0.490861416218749	9.624621873004049e-25
-0.490800381062499	8.925905879199666e-25
-0.490739345906249	8.198500936250708e-25
-0.490678310749999	7.44459585983141e-25
-0.490617275593749	6.666461994111731e-25
-0.490556240437499	5.866445395737506e-25
-0.490495205281249	5.046959059080787e-25
-0.490434170124999	4.2104775844358665e-25
-0.490373134968749	3.359529359773204e-25
-0.490312099812499	2.4966853640043233e-25
-0.490251064656249	1.6245582484261012e-25
-0.490190029499999	7.45787047396268e-26
-0.490128994343749	-1.3696556761015985e-26
-0.490067959187499	-1.0210228696944562e-25
-0.490006924031249	-1.9037043976958423e-25
-0.489945888874999	-2.782329110091229e-25
-0.489884853718749	-3.65423109113515e-25
-0.489823818562499	-4.516757371065086e-25
-0.489762783406249	-5.367286429905228e-25
-0.489701748249999	-6.20323037897726e-25
-0.489640713093749	-7.022040708042477e-25
-0.489579677937499	-7.82122498174003e-25
-0.489518642781249	-8.598343413445526e-25
-0.489457607624999	-9.351024538395546e-25
-0.489396572468749	-1.007696881816535e-24
-0.489335537312499	-1.07739553096491e-24
-0.489274502156249	-1.1439851689411063e-24
-0.489213466999999	-1.2072616212733215e-24
-0.489152431843749	-1.2670307531652498e-24
-0.489091396687499	-1.3231089532674924e-24
-0.489030361531249	-1.3753236074066404e-24
-0.488969326374999	-1.4235137779483074e-24
-0.488908291218749	-1.4675306056789084e-24
-0.488847256062499	-1.5072377702548296e-24
-0.488786220906249	-1.5425119519486487e-24
-0.488725185749999	-1.5732431950081578e-24
-0.488664150593749	-1.5993352295696109e-24
-0.488603115437499	-1.6207058076331657e-24
-0.488542080281249	-1.6372869214700526e-24
-0.488481045124999	-1.6490250646605862e-24
-0.488420009968749	-1.6558813603987303e-24
-0.488358974812499	-1.6578316717849722e-24
-0.488297939656249	-1.654866802945608e-24
-0.488236904499999	-1.646992362771709e-24
-0.488175869343749	-1.6342288548194108e-24
-0.488114834187499	-1.6166116712096883e-24
-0.488053799031249	-1.5941908543307968e-24
-0.487992763874999	-1.5670310552662177e-24
-0.487931728718749	-1.5352113563914893e-24
-0.487870693562499	-1.498824962241979e-24
-0.487809658406249	-1.457978944562436e-24
-0.487748623249999	-1.4127940443585561e-24
-0.487687588093749	-1.3634040923668466e-24
-0.487626552937499	-1.3099557514788946e-24
-0.487565517781249	-1.2526081897834154e-24
-0.487504482624999	-1.1915322743761973e-24
-0.487443447468749	-1.1269103484592617e-24
-0.487382412312499	-1.0589356737380711e-24
-0.487321377156249	-9.878115795430019e-25
-0.487260341999999	-9.137511494295626e-25
-0.487199306843749	-8.369765055791843e-25
-0.487138271687499	-7.577179465011542e-25
-0.487077236531249	-6.762135606810034e-25
-0.487016201374999	-5.927082118692072e-25
-0.486955166218749	-5.074530243687938e-25
-0.486894131062499	-4.20704513926259e-25
-0.486833095906249	-3.327237744100658e-25
-0.486772060749999	-2.4377582532284333e-25
-0.486711025593749	-1.5412858696953932e-25
-0.486649990437499	-6.405241585926168e-26
-0.486588955281249	2.618123546319325e-26
-0.486527920124999	1.163000447277251e-25
-0.486466884968749	2.0603201999592037e-25
-0.486405849812499	2.9510654708787977e-25
-0.486344814656249	3.832543558797774e-25
-0.486283779499999	4.702094287283603e-25
-0.486222744343749	5.557090814232248e-25
-0.486161709187499	6.394947152049218e-25
-0.486100674031249	7.213134983118147e-25
-0.486039638874999	8.009178038404495e-25
-0.485978603718749	8.780670269391982e-25
-0.485917568562499	9.525281365941837e-25
-0.485856533406249	1.024075515525087e-24
-0.485795498249999	1.092493229831206e-24
-0.485734463093749	1.1575742428716497e-24
-0.485673427937499	1.2191215676441688e-24
-0.485612392781249	1.2769494322323605e-24
-0.485551357624999	1.3308826513791618e-24
-0.485490322468749	1.3807584441218099e-24
-0.485429287312499	1.4264260735085812e-24
-0.485368252156249	1.467747408536955e-24
-0.485307216999999	1.5045979709544067e-24
-0.485246181843749	1.5368664443461646e-24
-0.485185146687499	1.5644556719556622e-24
-0.485124111531249	1.5872827151977023e-24
-0.485063076374999	1.6052790258889916e-24
-0.485002041218749	1.6183908869543594e-24
-0.484941006062499	1.6265793928437283e-24
-0.484879970906249	1.6298206777624796e-24
-0.484818935749999	1.6281059286991458e-24
-0.484757900593749	1.6214414904871793e-24
-0.484696865437499	1.6098487839866088e-24
-0.484635830281249	1.5933642886639e-24
-0.484574795124999	1.5720394282712162e-24
-0.484513759968749	1.5459404038594132e-24
-0.484452724812499	1.515148043032667e-24
-0.484391689656249	1.4797574653017753e-24
-0.484330654499999	1.4398779409820226e-24
-0.484269619343749	1.395632425070175e-24
-0.484208584187499	1.3471572248418132e-24
-0.484147549031249	1.29460169922372e-24
-0.484086513874999	1.2381276051448627e-24
-0.484025478718749	1.1779087943646564e-24
-0.483964443562499	1.1141305741625485e-24
-0.483903408406249	1.0469891981287731e-24
-0.483842373249999	9.76691230588592e-25
-0.483781338093749	9.0345297758528e-25
-0.483720302937499	8.274997944264212e-25
-0.483659267781249	7.490652908448729e-25
-0.483598232624999	6.683909130053118e-25
-0.483537197468749	5.857248984654582e-25
-0.483476162312499	5.013215767116394e-25
-0.483415127156249	4.154408910270137e-25
-0.483354091999999	3.2834710325991557e-25
-0.483293056843749	2.4030840075688986e-25
-0.483232021687499	1.5159601407780664e-25
-0.483170986531249	6.248301399288849e-26
-0.483109951374999	-2.675594075102879e-26
-0.483048916218749	-1.158458549285622e-25
-0.482987881062499	-2.0451218267554206e-25
-0.482926845906249	-2.924815509565341e-25
-0.482865810749999	-3.7948254045077425e-25
-0.482804775593749	-4.652469611916185e-25
-0.482743740437499	-5.495100448839877e-25
-0.482682705281249	-6.320115645138801e-25
-0.482621670124999	-7.124970247021116e-25
-0.482560634968749	-7.907174666132922e-25
-0.482499599812499	-8.66431351629759e-25
-0.482438564656249	-9.39404511404603e-25
-0.482377529499999	-1.0094110810228446e-24
-0.482316494343749	-1.0762345636937887e-24
-0.482255459187499	-1.1396677968873236e-24
-0.482194424031249	-1.1995142663374593e-24
-0.482133388874999	-1.2555883549169389e-24
-0.482072353718749	-1.3077159379066005e-24
-0.482011318562499	-1.3557350181354374e-24
-0.481950283406249	-1.399496249171893e-24
-0.481889248249999	-1.4388632626917732e-24
-0.481828213093749	-1.4737131635065042e-24
-0.481767177937499	-1.5039370558120361e-24
-0.481706142781249	-1.5294400549555673e-24
-0.481645107624999	-1.5501419424447775e-24
-0.481584072468749	-1.5659772268970903e-24
-0.481523037312499	-1.576895286749742e-24
-0.481462002156249	-1.5828607694060414e-24
-0.481400966999999	-1.5838535071126028e-24
-0.481339931843749	-1.5798686030124332e-24
-0.481278896687499	-1.5709165917388597e-24
-0.481217861531249	-1.5570232706469076e-24
-0.481156826374999	-1.5382296541207109e-24
-0.481095791218749	-1.5145919552542989e-24
-0.481034756062499	-1.4861812735337199e-24
-0.480973720906249	-1.453083496171433e-24
-0.480912685749999	-1.4153989936948384e-24
-0.480851650593749	-1.3732423179882693e-24
-0.480790615437499	-1.326741865464129e-24
-0.480729580281249	-1.276039490640751e-24
-0.480668545124999	-1.2212900896805254e-24
-0.480607509968749	-1.1626610552382759e-24
-0.480546474812499	-1.1003319421391926e-24
-0.480485439656249	-1.0344936739288464e-24
-0.480424404499999	-9.653481294226275e-25
-0.480363369343749	-8.931076182835095e-25
-0.480302334187499	-8.179938808571095e-25
-0.480241299031249	-7.402377652821835e-25
-0.480180263874999	-6.600784862793121e-25
-0.480119228718749	-5.777625153736575e-25
-0.480058193562499	-4.93543359869684e-25
-0.479997158406249	-4.076805208335527e-25
-0.479936123249999	-3.2043838588729746e-25
-0.479875088093749	-2.3208628242137563e-25
-0.479814052937499	-1.4289662208976982e-25
-0.479753017781249	-5.314467279678213e-26
-0.479691982624999	3.689210128182305e-26
-0.479630947468749	1.2693571055510606e-25
-0.479569912312499	2.1670766074095144e-25
-0.479508877156249	3.059301747710244e-25
-0.479447841999999	3.943270631857038e-25
-0.479386806843749	4.816246848941845e-25
-0.479325771687499	5.675523033539826e-25
-0.479264736531249	6.518434364522893e-25
-0.479203701374999	7.342367391369348e-25
-0.479142666218749	8.14476062156173e-25
-0.479081631062499	8.923121402406821e-25
-0.479020595906249	9.675029963331525e-25
-0.478959560749999	1.0398143402110083e-24
-0.478898525593749	1.1090209716599936e-24
-0.478837490437499	1.174907087395903e-24
-0.478776455281249	1.2372667779982924e-24
-0.478715420124999	1.2959051246374469e-24
-0.478654384968749	1.3506385543874936e-24
-0.478593349812499	1.4012953534615219e-24
-0.478532314656249	1.447716293072108e-24
-0.478471279499999	1.4897552197224113e-24
-0.478410244343749	1.5272793039488773e-24
-0.478349209187499	1.5601696229533915e-24
-0.478288174031249	1.588321504910865e-24
-0.478227138874999	1.6116447528797042e-24
-0.478166103718749	1.6300641288665942e-24
-0.478105068562499	1.643519371028425e-24
-0.478044033406249	1.651965597373996e-24
-0.477982998249999	1.655373275140451e-24
-0.477921963093749	1.653728425196344e-24
-0.477860927937499	1.6470327049038103e-24
-0.477799892781249	1.6353032377516832e-24
-0.477738857624999	1.6185728077213746e-24
-0.477677822468749	1.5968895694488834e-24
-0.477616787312499	1.5703170074352205e-24
-0.477555752156249	1.5389337429741142e-24
-0.477494716999999	1.5028332432685288e-24
-0.477433681843749	1.4621236182674321e-24
-0.477372646687499	1.416927263672363e-24
-0.477311611531249	1.3673804092998854e-24
-0.477250576374999	1.313632887269754e-24
-0.477189541218749	1.255847525185598e-24
-0.477128506062499	1.1941996168185233e-24
-0.477067470906249	1.1288766458773857e-24
-0.477006435749999	1.0600773567969907e-24
-0.476945400593749	9.880114128873724e-25
-0.476884365437499	9.128986458712215e-25
-0.476823330281249	8.349684325354945e-25
-0.476762295124999	7.544589256959372e-25
-0.476701259968749	6.716162925449203e-25
-0.476640224812499	5.866942910722653e-25
-0.476579189656249	4.999527648362696e-25
-0.476518154499999	4.116577548634015e-25
-0.476457119343749	3.2208004952244857e-25
-0.476396084187499	2.3149433410061773e-25
-0.476335049031249	1.4017892485275254e-25
-0.476274013874999	4.841410886364358e-26
-0.476212978718749	-4.351784945274067e-26
-0.476151943562499	-1.3533456127121335e-25
-0.476090908406249	-2.267534663164858e-25
-0.476029873249999	-3.1749314392609348e-25
-0.475968838093749	-4.072745326951101e-25
-0.475907802937499	-4.958207875812683e-25
-0.475846767781249	-5.828592933128125e-25
-0.475785732624999	-6.68121695547685e-25
-0.475724697468749	-7.513451238391964e-25
-0.475663662312499	-8.3227281941177e-25
-0.475602627156249	-9.106550057644953e-25
-0.475541591999999	-9.862499329958131e-25
-0.475480556843749	-1.0588238359334205e-24
-0.475419521687499	-1.128152687166881e-24
-0.475358486531249	-1.1940223297386577e-24
-0.475297451374999	-1.2562288105888558e-24
-0.475236416218749	-1.3145799631497568e-24
-0.475175381062499	-1.3688951990917473e-24
-0.475114345906249	-1.4190062499004661e-24
-0.475053310749999	-1.4647580645313524e-24
-0.474992275593749	-1.5060087519062591e-24
-0.474931240437499	-1.5426304878977375e-24
-0.474870205281249	-1.5745096197892123e-24
-0.474809170124999	-1.6015471040285685e-24
-0.474748134968749	-1.623659035859071e-24
-0.474687099812499	-1.6407764680346903e-24
-0.474626064656249	-1.6528460609688493e-24
-0.474565029499999	-1.6598300941481853e-24
-0.474503994343749	-1.661706457819156e-24
-0.474442959187499	-1.6584689732003594e-24
-0.474381924031249	-1.6501272711563895e-24
-0.474320888874999	-1.6367067484332917e-24
-0.474259853718749	-1.6182486173257086e-24
-0.474198818562499	-1.594809678990792e-24
-0.474137783406249	-1.5664621795279651e-24
-0.474076748249999	-1.5332936560683748e-24
-0.474015713093749	-1.495406545122655e-24
-0.473954677937499	-1.4529180171018919e-24
-0.473893642781249	-1.4059595310298339e-24
-0.473832607624999	-1.3546764082317715e-24
-0.473771572468749	-1.2992275021357132e-24
-0.473710537312499	-1.2397846016198292e-24
-0.473649502156249	-1.1765319119585196e-24
-0.473588466999999	-1.1096655953531082e-24
-0.473527431843749	-1.0393930504857759e-24
-0.473466396687499	-9.659322721170905e-25
-0.473405361531249	-8.895113396063765e-25
-0.473344326374999	-8.103674053126459e-25
-0.473283291218749	-7.287463765987498e-25
-0.473222256062499	-6.449017855054601e-25
-0.473161220906249	-5.590940694849642e-25
-0.473100185749999	-4.715901762347067e-25
-0.473039150593749	-3.8266194430266914e-25
-0.472978115437499	-2.9258609777369386e-25
-0.472917080281249	-2.0164285052028152e-25
-0.472856045124999	-1.1011516547866003e-25
-0.472795009968749	-1.828806110406724e-26
-0.472733974812499	7.355271800745293e-26
-0.472672939656249	1.6512090742149285e-25
-0.472611904499999	2.5613133589715815e-25
-0.472550869343749	3.4630042176280245e-25
-0.472489834187499	4.3534687612678225e-25
-0.472428799031249	5.229932010429658e-25
-0.472367763874999	6.089659040034402e-25
-0.472306728718749	6.929966396381493e-25
-0.472245693562499	7.748232717887117e-25
-0.472184658406249	8.541900994326635e-25
-0.472123623249999	9.308493044968634e-25
-0.472062588093749	1.0045612855429566e-24
-0.472001552937499	1.0750955379240585e-24
-0.471940517781249	1.1422315494000825e-24
-0.471879482624999	1.2057591329576708e-24
-0.471818447468749	1.265479461348551e-24
-0.471757412312499	1.3212053892442329e-24
-0.471696377156249	1.3727622652728409e-24
-0.471635341999999	1.4199883527955065e-24
-0.471574306843749	1.462735349915095e-24
-0.471513271687499	1.5008689928745467e-24
-0.471452236531249	1.534269214851576e-24
-0.471391201374999	1.5628308173778616e-24
-0.471330166218749	1.58646366708857e-24
-0.471269131062499	1.6050928491633997e-24
-0.471208095906249	1.6186592568032393e-24
-0.471147060749999	1.6271194643843096e-24
-0.471086025593749	1.6304459327452765e-24
