Time	Frequency
-0.5000381473124946	-6.530883728957103e-25
-0.49997711215624463	-6.153109991450136e-25
-0.49991607699999463	-5.739059728217347e-25
-0.49985504184374463	-5.291147897114821e-25
-0.49979400668749463	-4.811987045272198e-25
-0.49973297153124463	-4.3043734495564745e-25
-0.49967193637499463	-3.7712721677916973e-25
-0.49961090121874463	-3.215798036861627e-25
-0.49954986606249463	-2.6411967797812177e-25
-0.49948883090624463	-2.0508294722138078e-25
-0.49942779574999463	-1.4481501545457995e-25
-0.49936676059374463	-8.366845293466532e-26
-0.49930572543749463	-2.20014879890261e-26
-0.49924469028124463	3.9824687690287824e-26
-0.49918365512499463	1.0144789811424931e-25
-0.49912261996874463	1.6250663864412114e-25
-0.49906158481249463	2.2264277801369786e-25
-0.49900054965624463	2.8150348208944566e-25
-0.49893951449999463	3.387429840288662e-25
-0.49887847934374463	3.9402498351455743e-25
-0.49881744418749463	4.4702451858581e-25
-0.49875640903124463	4.974296987053824e-25
-0.49869537387499463	5.449437641323101e-25
-0.49863433871874463	5.892866692476713e-25
-0.49857330356249463	6.301968632443439e-25
-0.49851226840624463	6.674327092911459e-25
-0.49845123324999463	7.0077391599086135e-25
-0.49839019809374463	7.3002302265753925e-25
-0.49832916293749463	7.550062620245637e-25
-0.49826812778124463	7.755748382410873e-25
-0.49820709262499463	7.916057421342509e-25
-0.49814605746874463	8.030023765654146e-25
-0.49808502231249463	8.096953210713321e-25
-0.49802398715624463	8.1164263145844265e-25
-0.49796295199999463	8.088300840372702e-25
-0.49790191684374463	8.01271350540783e-25
-0.49784088168749463	7.890079157424729e-25
-0.49777984653124463	7.721088078828613e-25
-0.49771881137499463	7.506702126740965e-25
-0.49765777621874463	7.248150045833277e-25
-0.49759674106249463	6.946919484058548e-25
-0.49753570590624463	6.60474838504543e-25
-0.49747467074999463	6.223616523810011e-25
-0.49741363559374463	5.80573132485964e-25
-0.49735260043749463	5.353517625329023e-25
-0.49729156528124463	4.869603129597327e-25
-0.49723053012499463	4.356800190858342e-25
-0.49716949496874463	3.8180943852709284e-25
-0.49710845981249463	3.25662395384337e-25
-0.49704742465624463	2.6756606521732503e-25
-0.49698638949999463	2.0785933469703676e-25
-0.49692535434374463	1.468907706347306e-25
-0.49686431918749463	8.501636891360672e-26
-0.49680328403124463	2.2597598237002465e-26
-0.49674224887499463	-4.000050050442218e-26
-0.49668121371874463	-1.0241183403507027e-25
-0.49662017856249463	-1.6427113430539765e-25
-0.49655914340624463	-2.252162091589844e-25
-0.49649810824999463	-2.848899852909542e-25
-0.49643707309374463	-3.42942635357988e-25
-0.49637603793749463	-3.9903383814599386e-25
-0.49631500278124463	-4.528343056505205e-25
-0.49625396762499463	-5.040281631534611e-25
-0.49619293246874463	-5.523146978871276e-25
-0.49613189731249463	-5.974098778738738e-25
-0.49607086215624463	-6.390484227658093e-25
-0.49600982699999463	-6.769850932195936e-25
-0.49594879184374463	-7.109961257450168e-25
-0.49588775668749463	-7.408807977961433e-25
-0.49582672153124463	-7.664624123799768e-25
-0.49576568637499463	-7.87589283456147e-25
-0.49570465121874463	-8.041358737314553e-25
-0.49564361606249463	-8.160034554312065e-25
-0.49558258090624463	-8.231204916199264e-25
-0.49552154574999463	-8.254433804366598e-25
-0.49546051059374463	-8.229566134810816e-25
-0.49539947543749463	-8.156727144856642e-25
-0.49533844028124463	-8.036324480805241e-25
-0.49527740512499463	-7.869044270913477e-25
-0.49521636996874463	-7.655847211832234e-25
-0.49515533481249463	-7.3979642208981605e-25
-0.49509429965624463	-7.096888032211133e-25
-0.49503326449999463	-6.754365189527612e-25
-0.49497222934374463	-6.372386258368682e-25
-0.49491119418749463	-5.953173517617828e-25
-0.49485015903124463	-5.499168168992051e-25
-0.49478912387499463	-5.013016852190592e-25
-0.49472808871874463	-4.497555573708022e-25
-0.49466705356249463	-3.955792386173283e-25
-0.49460601840624463	-3.3908918367522425e-25
-0.49454498324999463	-2.8061549128383957e-25
-0.49448394809374463	-2.2049993567285755e-25
-0.49442291293749463	-1.5909414236051765e-25
-0.49436187778124463	-9.675736020860539e-26
-0.49430084262499463	-3.385444232365143e-26
-0.49423980746874463	2.9246324657886644e-26
-0.49417877231249463	9.217539743851285e-26
-0.49411773715624463	1.545640597276089e-25
-0.49405670199999463	2.160467429790277e-25
-0.49399566684374463	2.7626301868336423e-25
-0.49393463168749463	3.3485980366290907e-25
-0.49387359653124463	3.9149344243828748e-25
-0.49381256137499463	4.458316556942148e-25
-0.49375152621874463	4.975556670351675e-25
-0.49369049106249463	5.463617865208214e-25
-0.49362945590624463	5.919635179457643e-25
-0.49356842074999463	6.340931592629997e-25
-0.49350738559374463	6.725031296204902e-25
-0.49344635043749463	7.069678345815878e-25
-0.49338531528124463	7.372847706518501e-25
-0.49332428012499463	7.632757179305489e-25
-0.49326324496874463	7.847878595444749e-25
-0.49320220981249463	8.016946904023538e-25
-0.49314117465624463	8.138967924544671e-25
-0.49308013949999463	8.213223141568938e-25
-0.49301910434374463	8.239275354634668e-25
-0.49295806918749463	8.2169711155562135e-25
-0.49289703403124463	8.146440916426813e-25
-0.49283599887499463	8.028099442412557e-25
-0.49277496371874463	7.862642827216037e-25
-0.49271392856249463	7.651044619812396e-25
-0.49265289340624463	7.394550730909072e-25
-0.49259185824999463	7.094670957183494e-25
-0.49253082309374463	6.753171346228892e-25
-0.49246978793749463	6.372064356406535e-25
-0.49240875278124463	5.953594323682678e-25
-0.49234771762499463	5.500227631537221e-25
-0.49228668246874463	5.014637744789227e-25
-0.49222564731249463	4.499685638839438e-25
-0.49216461215624463	3.958408969254365e-25
-0.49210357699999463	3.394000324343626e-25
-0.49204254184374463	2.8097882717060597e-25
-0.49198150668749463	2.2092212213770525e-25
-0.49192047153124463	1.5958416866199572e-25
-0.49185943637499463	9.732722336825275e-26
-0.49179840121874463	3.451880646919564e-26
-0.49173736606249463	-2.8470367847455024e-26
-0.49167633090624463	-9.1267926819656e-26
-0.49161529574999463	-1.5350305473849857e-25
-0.49155426059374463	-2.1480801963203025e-25
-0.49149322543749463	-2.74820307925238e-25
-0.49143219028124463	-3.331851757150403e-25
-0.49137115512499463	-3.895574905655124e-25
-0.49131011996874463	-4.4360376543979465e-25
-0.49124908481249463	-4.950041613945314e-25
-0.49118804965624463	-5.434544763108921e-25
-0.49112701449999463	-5.886677977578345e-25
-0.49106597934374463	-6.303763363980649e-25
-0.49100494418749463	-6.683329268336675e-25
-0.49094390903124463	-7.023125382541969e-25
-0.49088287387499463	-7.321136023054084e-25
-0.49082183871874463	-7.575592063538032e-25
-0.49076080356249463	-7.784982225623276e-25
-0.49069976840624463	-7.948060454165435e-25
-0.49063873324999463	-8.063855107423454e-25
-0.49057769809374463	-8.131674363677337e-25
-0.49051666293749463	-8.151109514895688e-25
-0.49045562778124463	-8.122038637405442e-25
-0.49039459262499463	-8.044627162974433e-25
-0.49033355746874463	-7.919326476622753e-25
-0.49027252231249463	-7.746871930784623e-25
-0.49021148715624463	-7.528278600577048e-25
-0.49015045199999463	-7.264835009714008e-25
-0.49008941684374463	-6.958095966106409e-25
-0.49002838168749463	-6.60987334201367e-25
-0.48996734653124463	-6.222225616771811e-25
-0.48990631137499463	-5.797445650926504e-25
-0.48984527621874463	-5.338046791779801e-25
-0.48978424106249463	-4.846749202066495e-25
-0.48972320590624463	-4.326463253708079e-25
-0.48966217074999463	-3.780271105923834e-25
-0.48960113559374463	-3.2114110228788804e-25
-0.48954010043749463	-2.623256730305149e-25
-0.48947906528124463	-2.0192973430098647e-25
-0.48941803012499463	-1.403117023472632e-25
-0.48935699496874463	-7.78374262666706e-26
-0.48929595981249463	-1.4878034709712725e-26
-0.48923492465624463	4.8192497578813253e-26
-0.48917388949999463	1.1099910832068365e-25
-0.48911285434374463	1.7316832488189055e-25
-0.48905181918749463	2.343303602152415e-25
-0.48899078403124463	2.9412097066920575e-25
-0.48892974887499463	3.5218410142798186e-25
-0.48886871371874463	4.0817379101950224e-25
-0.48880767856249463	4.617561645012641e-25
-0.48874664340624463	5.126114050158965e-25
-0.48868560824999463	5.60435883766299e-25
-0.48862457309374463	6.049438055545796e-25
-0.48856353793749463	6.458688127445017e-25
-0.48850250278124463	6.829657889536284e-25
-0.48844146762499463	7.160121810338437e-25
-0.48838043246874463	7.448094558422184e-25
-0.48831939731249463	7.691841337971025e-25
-0.48825836215624463	7.889888810528206e-25
-0.48819732699999463	8.041035709937433e-25
-0.48813629184374463	8.1443574141080185e-25
-0.48807525668749463	8.1992132732870205e-25
-0.48801422153124463	8.205250470569054e-25
-0.48795318637499463	8.162405267751033e-25
-0.48789215121874463	8.0709052018835e-25
-0.48783111606249463	7.931266032662616e-25
-0.48777008090624463	7.744290138750615e-25
-0.48770904574999463	7.511062015520175e-25
-0.48764801059374463	7.2329401950608985e-25
-0.48758697543749463	6.911552034074517e-25
-0.48752594028124463	6.548782417073343e-25
-0.48746490512499463	6.1467621706232365e-25
-0.48740386996874463	5.707857538851859e-25
-0.48734283481249463	5.234655488349181e-25
-0.48728179965624463	4.72994678412312e-25
-0.48722076449999463	4.196711397442679e-25
-0.48715972934374463	3.6381023039861703e-25
-0.48709869418749463	3.0574218088773176e-25
-0.48703765903124463	2.4581070214986857e-25
-0.48697662387499463	1.8437087345441594e-25
-0.48691558871874463	1.2178664748582491e-25
-0.48685455356249463	5.842918809938977e-26
-0.48679351840624463	-5.325518955510792e-27
-0.48673248324999463	-6.90990844103901e-26
-0.48667144809374463	-1.325126875477254e-25
-0.48661041293749463	-1.951893852670107e-25
-0.48654937778124463	-2.567566063600147e-25
-0.48648834262499463	-3.16847911328759e-25
-0.48642730746874463	-3.751055834454244e-25
-0.48636627231249463	-4.311826656061957e-25
-0.48630523715624463	-4.847447563336838e-25
-0.48624420199999463	-5.354724268182206e-25
-0.48618316684374463	-5.83062796424942e-25
-0.48612213168749463	-6.2723157584303835e-25
-0.48606109653124463	-6.677145255107722e-25
-0.48600006137499463	-7.042692076664453e-25
-0.48593902621874463	-7.366765836872411e-25
-0.48587799106249463	-7.647418604278349e-25
-0.48581695590624463	-7.882960990021782e-25
-0.48575592074999463	-8.071971694736005e-25
-0.48569488559374463	-8.213303872066768e-25
-0.48563385043749463	-8.306093841242336e-25
-0.48557281528124463	-8.349766538177224e-25
-0.48551178012499463	-8.34403833760459e-25
-0.48545074496874463	-8.28891894972776e-25
-0.48538970981249463	-8.184712020004441e-25
-0.48532867465624463	-8.032013194378106e-25
-0.48526763949999463	-7.831706549617863e-25
-0.48520660434374463	-7.5849597067666375e-25
-0.48514556918749463	-7.293217372812717e-25
-0.48508453403124463	-6.958191999669519e-25
-0.48502349887499463	-6.581854136345673e-25
-0.48496246371874463	-6.166422062968395e-25
-0.48490142856249463	-5.714346155971389e-25
-0.48484039340624463	-5.228296504927059e-25
-0.48477935824999463	-4.71114679953174e-25
-0.48471832309374463	-4.165956073967796e-25
-0.48465728793749463	-3.59595332570835e-25
-0.48459625278124463	-3.0045139621472173e-25
-0.48453521762499463	-2.395143801880752e-25
-0.48447418246874463	-1.7714580456933583e-25
-0.48441314731249463	-1.1371560502325071e-25
-0.48435211215624463	-4.9600331250921223e-26
-0.48429107699999463	1.4819269721144585e-26
-0.48423004184374463	7.916042519059377e-26
-0.48416900668749463	1.4304083501504887e-25
-0.48410797153124463	2.0608070003104692e-25
-0.48404693637499463	2.679049637009294e-25
-0.48398590121874463	3.2814600020400096e-25
-0.48392486606249463	3.864451191608608e-25
-0.48386383090624463	4.424552828237114e-25
-0.48380279574999463	4.958430137718895e-25
-0.48374176059374463	5.462900092365247e-25
-0.48368072543749463	5.934958689227455e-25
-0.48361969028124463	6.37179075832989e-25
-0.48355865512499463	6.7707894699394935e-25
-0.48349761996874463	7.129576356285989e-25
-0.48343658481249463	7.446008839259251e-25
-0.48337554965624463	7.7181964291354455e-25
-0.48331451449999463	7.944513142278118e-25
-0.48325347934374463	8.12360571093762e-25
-0.48319244418749463	8.254401517932211e-25
-0.48313140903124463	8.336115655529862e-25
-0.48307037387499463	8.36825699954796e-25
-0.48300933871874463	8.35062919976925e-25
-0.48294830356249463	8.283332492233778e-25
-0.48288726840624463	8.166764618634683e-25
-0.48282623324999463	8.001616983119681e-25
-0.48276519809374463	7.788871146548662e-25
-0.48270416293749463	7.52979341240749e-25
-0.48264312778124463	7.225927101165252e-25
-0.48258209262499463	6.879083295027196e-25
-0.48252105746874463	6.491330286881027e-25
-0.48246002231249463	6.0649820096055805e-25
-0.48239898715624463	5.602582522550061e-25
-0.48233795199999463	5.106892466806304e-25
-0.48227691684374463	4.580873223564672e-25
-0.48221588168749463	4.027666000619326e-25
-0.48215484653124463	3.4505775490419746e-25
-0.48209381137499463	2.853057718050182e-25
-0.48203277621874463	2.2386774541374373e-25
-0.48197174106249463	1.611113222883822e-25
-0.48191070590624463	9.741179012895013e-26
-0.48184967074999463	3.315025489648222e-26
-0.48178863559374463	-3.128852128871738e-26
-0.48172760043749463	-9.551891592344533e-26
-0.48166656528124463	-1.5915626784255266e-25
-0.48160553012499463	-2.2181945162836214e-25
-0.48154449496874463	-2.831330147953311e-25
-0.48148345981249463	-3.427295408553393e-25
-0.48142242465624463	-4.0025187416124464e-25
-0.48136138949999463	-4.553550596820639e-25
-0.48130035434374463	-5.077086487902118e-25
-0.48123931918749463	-5.569985473694891e-25
-0.48117828403124463	-6.029290255649248e-25
-0.48111724887499463	-6.452243103858194e-25
-0.48105621371874463	-6.836303811873167e-25
-0.48099517856249463	-7.179165982468308e-25
-0.48093414340624463	-7.478767792244156e-25
-0.48087310824999463	-7.733307761696858e-25
-0.48081207309374463	-7.94125432503813e-25
-0.48075103793749463	-8.101353970092057e-25
-0.48069000278124463	-8.212641315750031e-25
-0.48062896762499463	-8.274443026874258e-25
-0.48056793246874463	-8.286382591173064e-25
-0.48050689731249463	-8.248383341601308e-25
-0.48044586215624463	-8.160667826158938e-25
-0.48038482699999463	-8.023757709101929e-25
-0.48032379184374463	-7.838470162488696e-25
-0.48026275668749463	-7.605913133125915e-25
-0.48020172153124463	-7.327479098579284e-25
-0.48014068637499463	-7.004836502909393e-25
-0.48007965121874463	-6.6399202236767755e-25
-0.48001861606249463	-6.234919158903312e-25
-0.47995758090624463	-5.792265079726275e-25
-0.47989654574999463	-5.314615946328943e-25
-0.47983551059374463	-4.804840438817717e-25
-0.47977447543749463	-4.266003936378265e-25
-0.47971344028124463	-3.701344754971164e-25
-0.47965240512499463	-3.1142580896597663e-25
-0.47959136996874463	-2.508278237296349e-25
-0.47953033481249463	-1.8870503527096094e-25
-0.47946929965624463	-1.2543135863040767e-25
-0.47940826449999463	-6.138814656163685e-26
-0.47934722934374463	3.038995121440608e-27
-0.47928619418749463	6.746184027850775e-26
-0.47922515903124463	1.3149172796423162e-25
-0.47916412387499463	1.9474266280146092e-25
-0.47910308871874463	2.5683299676891575e-25
-0.47904205356249463	3.1738780889525606e-25
-0.47898101840624463	3.760414413660188e-25
-0.47891998324999463	4.32439520817559e-25
-0.47885894809374463	4.862409624873561e-25
-0.47879791293749463	5.371203207256194e-25
-0.47873687778124463	5.84769682033036e-25
-0.47867584262499463	6.289001757124861e-25
-0.47861480746874463	6.692442567240304e-25
-0.47855377231249463	7.055570465430388e-25
-0.47849273715624463	7.376176929460325e-25
-0.47843170199999463	7.652310185102861e-25
-0.47837066684374463	7.882284930214049e-25
-0.47830963168749463	8.064693033715331e-25
-0.47824859653124463	8.1984127676834405e-25
-0.47818756137499463	8.28261516805037e-25
-0.47812652621874463	8.316768947747567e-25
-0.47806549106249463	8.300644520065663e-25
-0.47800445590624463	8.234315436291813e-25
-0.47794342074999463	8.118157095892347e-25
-0.47788238559374463	7.952846323503466e-25
-0.47782135043749463	7.73935597270337e-25
-0.47776031528124463	7.478949501367828e-25
-0.47769928012499463	7.173175303873842e-25
-0.47763824496874463	6.8238537196806725e-25
-0.47757720981249463	6.433070151696433e-25
-0.47751617465624463	6.003161341316943e-25
-0.47745513949999463	5.536699037141457e-25
-0.47739410434374463	5.036478900501534e-25
-0.47733306918749463	4.505500152821095e-25
-0.47727203403124463	3.9469494211423662e-25
-0.47721099887499463	3.364181864449473e-25
-0.47714996371874463	2.760698305052013e-25
-0.47708892856249463	2.1401286819548013e-25
-0.47702789340624463	1.5062075560341166e-25
-0.47696685824999463	8.627489490094228e-26
-0.47690582309374463	2.1363027000591928e-26
-0.47684478793749463	-4.372360580984171e-26
-0.47678375278124463	-1.0859277053503592e-25
-0.47672271762499463	-1.7285296942062815e-25
-0.47666168246874463	-2.361163726763156e-25
-0.47660064731249463	-2.98000969297534e-25
-0.47653961215624463	-3.581327329113654e-25
-0.47647857699999463	-4.161482220894562e-25
-0.47641754184374463	-4.716964105287443e-25
-0.47635650668749463	-5.244408954306171e-25
-0.47629547153124463	-5.740623284522146e-25
-0.47623443637499463	-6.202597718354324e-25
-0.47617340121874463	-6.627526847751544e-25
-0.47611236606249463	-7.012831379977314e-25
-0.47605133090624463	-7.356166480039284e-25
-0.47599029574999463	-7.65543894354455e-25
-0.47592926059374463	-7.908822813628906e-25
-0.47586822543749463	-8.114766492249067e-25
-0.47580719028124463	-8.272003410069195e-25
-0.47574615512499463	-8.379561193531622e-25
-0.47568511996874463	-8.436766416369499e-25
-0.47562408481249463	-8.443248634356859e-25
-0.47556304965624463	-8.398943869655038e-25
-0.47550201449999463	-8.30409436372111e-25
-0.47544097934374463	-8.159247219415439e-25
-0.47537994418749463	-7.965251604082745e-25
-0.47531890903124463	-7.723254201093191e-25
-0.47525787387499463	-7.434691073038377e-25
-0.47519683871874463	-7.101280241860781e-25
-0.47513580356249463	-6.725011920112077e-25
-0.47507476840624463	-6.308134944406833e-25
-0.47501373324999463	-5.85314462212301e-25
-0.47495269809374463	-5.36276778096644e-25
-0.47489166293749463	-4.839945679715876e-25
-0.47483062778124463	-4.287817040031113e-25
-0.47476959262499463	-3.7096991171819414e-25
-0.47470855746874463	-3.1090661261810467e-25
-0.47464752231249463	-2.489531872459267e-25
-0.47458648715624463	-1.8548254322298686e-25
-0.47452545199999463	-1.2087665679684456e-25
-0.47446441684374463	-5.552483174743495e-26
-0.47440338168749463	1.017900016562274e-26
-0.47434234653124463	7.583881125472957e-26
-0.47428131137499463	1.4105857514710518e-25
-0.47422027621874463	2.054446467571372e-25
-0.47415924106249463	2.686083580245447e-25
-0.47409820590624463	3.301683791202379e-25
-0.47403717074999463	3.8975275799243987e-25
-0.47397613559374463	4.4700131710117e-25
-0.47391510043749463	5.01568057821742e-25
-0.47385406528124463	5.5312288786003455e-25
-0.47379303012499463	6.013537575007099e-25
-0.47373199496874463	6.459688245856563e-25
-0.47367095981249463	6.8669776648223235e-25
-0.47360992465624463	7.232937545414681e-25
-0.47354888949999463	7.555349057422275e-25
-0.47348785434374463	7.832254777150205e-25
-0.47342681918749463	8.06197335870471e-25
-0.47336578403124463	8.243106986170491e-25
-0.47330474887499463	8.374551750871742e-25
-0.47324371371874463	8.455504466001206e-25
-0.47318267856249463	8.485466469940778e-25
-0.47312164340624463	8.464248033378836e-25
-0.47306060824999463	8.391968755838556e-25
-0.47299957309374463	8.269057849503957e-25
-0.47293853793749463	8.096250924608758e-25
-0.47287750278124463	7.874585387744217e-25
-0.47281646762499463	7.6053960867242395e-25
-0.47275543246874463	7.290305231893685e-25
-0.47269439731249463	6.931213119609698e-25
-0.47263336215624463	6.530288544031922e-25
-0.47257232699999463	6.089953584036888e-25
-0.47251129184374463	5.612869440432665e-25
-0.47245025668749463	5.101921659827008e-25
-0.47238922153124463	4.560201786557452e-25
-0.47232818637499463	3.9909880919618833e-25
-0.47226715121874463	3.3977272468007894e-25
-0.47220611606249463	2.7840130858590965e-25
-0.47214508090624463	2.1535626285419825e-25
