Time	Frequency
-0.5000250341875017	0.13053575748986496
-0.49996399903125166	0.09759169566014926
-0.49990296387500166	0.06408714235515461
-0.49984192871875166	0.030203595963143988
-0.49978089356250166	-0.003875264769566161
-0.49971985840625166	-0.037964685787306225
-0.49965882325000166	-0.07187963900527933
-0.49959778809375166	-0.1054360730875517
-0.49953675293750166	-0.13845163622348852
-0.49947571778125166	-0.17074682609798988
-0.49941468262500166	-0.20214611833943288
-0.49935364746875166	-0.2324784605637856
-0.49929261231250166	-0.26157865646458
-0.49923157715625166	-0.28928812832414436
-0.49917054200000166	-0.31545564624021133
-0.49910950684375166	-0.3399382481142015
-0.49904847168750166	-0.3626020821912921
-0.49898743653125166	-0.3833231214722247
-0.49892640137500166	-0.40198764263636405
-0.49886536621875166	-0.4184931185220387
-0.49880433106250166	-0.43274869305788505
-0.49874329590625166	-0.44467557355258974
-0.49868226075000166	-0.45420756204639035
-0.49862122559375166	-0.46129144122212873
-0.49856019043750166	-0.46588722500324337
-0.49849915528125166	-0.4679683663358519
-0.49843812012500166	-0.4675219502410797
-0.49837708496875166	-0.46454876469861783
-0.49831604981250166	-0.4590632890638705
-0.49825501465625166	-0.45109361867926406
-0.49819397950000166	-0.4406813519560055
-0.49813294434375166	-0.42788133282532254
-0.49807190918750166	-0.4127613891210573
-0.49801087403125166	-0.3954019714610167
-0.49794983887500166	-0.37589568513158583
-0.49788880371875166	-0.35434684000811123
-0.49782776856250166	-0.33087091887788617
-0.49776673340625166	-0.30559380985568296
-0.49770569825000166	-0.2786512937318528
-0.49764466309375166	-0.2501883461874081
-0.49758362793750166	-0.22035802844100202
-0.49752259278125166	-0.18932106435352458
-0.49746155762500166	-0.15724486513662486
-0.49740052246875166	-0.12430231199514577
-0.49733948731250166	-0.09067124752818106
-0.49727845215625166	-0.056533386412773196
-0.49721741700000166	-0.02207307403964899
-0.49715638184375166	0.012523368008289532
-0.49709534668750166	0.04706875625853382
-0.49703431153125166	0.08137626392876378
-0.49697327637500166	0.11526011533839518
-0.49691224121875166	0.14853683251659738
-0.49685120606250166	0.18102612210310576
-0.49679017090625166	0.21255187453392207
-0.49672913575000166	0.24294323054114894
-0.49666810059375166	0.27203523444510286
-0.49660706543750166	0.29967008932062494
-0.49654603028125166	0.32569776971030734
-0.49648499512500166	0.34997689402131216
-0.49642395996875166	0.37237557244376374
-0.49636292481250166	0.39277197550413295
-0.49630188965625166	0.4110552798595361
-0.49624085450000166	0.4271258942258139
-0.49617981934375166	0.44089626395184855
-0.49611878418750166	0.4522914374341377
-0.49605774903125166	0.4612491293609444
-0.49599671387500166	0.4677203813666121
-0.49593567871875166	0.4716697378327035
-0.49587464356250166	0.47307537416477774
-0.49581360840625166	0.4719293255295805
-0.49575257325000166	0.46823746819763107
-0.49569153809375166	0.4620195169018732
-0.49563050293750166	0.45330893137218864
-0.49556946778125166	0.44215272367280756
-0.49550843262500166	0.4286112160303151
-0.49544739746875166	0.41275770657620925
-0.49538636231250166	0.3946781240745054
-0.49532532715625166	0.37447047284780133
-0.49526429200000166	0.352244372683635
-0.49520325684375166	0.32812053275991393
-0.49514222168750166	0.30222986697752247
-0.49508118653125166	0.2747130396101203
-0.49502015137500166	0.24571964069547617
-0.49495911621875166	0.21540720037912825
-0.49489808106250166	0.18394052979204634
-0.49483704590625166	0.15149081593087452
-0.49477601075000166	0.11823458999822492
-0.49471497559375166	0.0843527525636939
-0.49465394043750166	0.05002974608186792
-0.49459290528125166	0.015452449384311078
-0.49453187012500166	-0.01919090923767144
-0.49447083496875166	-0.05371168083508246
-0.49440979981250166	-0.08792176772662028
-0.49434876465625166	-0.1216348075247635
-0.49428772950000166	-0.1546671686438482
-0.49422669434375166	-0.18683873716177468
-0.49416565918750166	-0.21797417803600475
-0.49410462403125166	-0.2479038116086071
-0.49404358887500166	-0.2764643857745425
-0.49398255371875166	-0.30350017683185376
-0.49392151856250166	-0.328863766543255
-0.49386048340625166	-0.35241681189220164
-0.49379944825000166	-0.3740308101687757
-0.49373841309375166	-0.3935878976951983
-0.49367737793750166	-0.4109813996763097
-0.49361634278125166	-0.4261163999823101
-0.49355530762500166	-0.4389104073559117
-0.49349427246875166	-0.44929362369937315
-0.49343323731250166	-0.4572094757468891
-0.49337220215625166	-0.46261487324917394
-0.49331116700000166	-0.4654804037831443
-0.49325013184375166	-0.4657906273383414
-0.49318909668750166	-0.4635440169126534
-0.49312806153125166	-0.45875306284894074
-0.49306702637500166	-0.4514442040077172
-0.49300599121875166	-0.44165765040930405
-0.49294495606250166	-0.4294472063418561
-0.49288392090625166	-0.41487994276394535
-0.49282288575000166	-0.39803588341172846
-0.49276185059375166	-0.3790075390801764
-0.49270081543750166	-0.3578993841486766
-0.49263978028125166	-0.3348273603073882
-0.49257874512500166	-0.3099181860206941
-0.49251770996875166	-0.28330864235527287
-0.49245667481250166	-0.2551449605065623
-0.49239563965625166	-0.2255818639388174
-0.49233460450000166	-0.19478172780550534
-0.49227356934375166	-0.16291397138151872
-0.49221253418750166	-0.13015370066511728
-0.49215149903125166	-0.09668099707599581
-0.49209046387500166	-0.06268010208083064
-0.49202942871875166	-0.02833792187461261
-0.49196839356250166	0.00615651140526052
-0.49190735840625166	0.0406133144397969
-0.49184632325000166	0.07484280280679768
-0.49178528809375166	0.10865641702293927
-0.49172425293750166	0.14186791656596526
-0.49166321778125166	0.1742941413997214
-0.49160218262500166	0.20575636710066636
-0.49154114746875166	0.2360810199182183
-0.49148011231250166	0.26510068950935045
-0.49141907715625166	0.29265513804357834
-0.49135804200000166	0.31859208648987336
-0.49129700684375166	0.3427681442828674
-0.49123597168750166	0.3650494325862269
-0.49117493653125166	0.3853125832375986
-0.49111390137500166	0.40344518671023594
-0.49105286621875166	0.41934650423577124
-0.49099183106250166	0.43292810766491135
-0.49093079590625166	0.44411417450330015
-0.49086976075000166	0.4528421179603356
-0.49080872559375166	0.4590628221690332
-0.49074769043750166	0.4627409230823215
-0.49068665528125166	0.4638550462472334
-0.49062562012500166	0.4623979130786527
-0.49056458496875166	0.4583763987282405
-0.49050354981250166	0.45181147312417425
-0.49044251465625166	0.442738118502036
-0.49038147950000166	0.431205145654387
-0.49032044434375166	0.41727493325470255
-0.49025940918750166	0.40102304789225224
-0.49019837403125166	0.3825378950850273
-0.49013733887500166	0.3619202635582899
-0.49007630371875166	0.3392826203552016
-0.49001526856250166	0.3147486752102565
-0.48995423340625166	0.28845274134117754
-0.48989319825000166	0.2605386393464488
-0.48983216309375166	0.23115940653319805
-0.48977112793750166	0.2004762509390956
-0.48971009278125166	0.16865733121201545
-0.48964905762500166	0.1358775415840696
-0.48958802246875166	0.10231694801895304
-0.48952698731250166	0.0681599752642118
-0.48946595215625166	0.03359463257180038
-0.48940491700000166	-0.0011889711589968888
-0.48934388184375166	-0.03599916353009513
-0.48928284668750166	-0.07064419057107094
-0.48922181153125166	-0.10493311682482868
-0.48916077637500166	-0.13867661333282433
-0.48909974121875166	-0.1716885747047599
-0.48903870606250166	-0.20378662540142156
-0.48897767090625166	-0.23479322343823944
-0.48891663575000166	-0.2645370236028261
-0.48885560059375166	-0.2928532669895836
-0.48879456543750166	-0.3195850084963407
-0.48873353028125166	-0.3445840712733126
-0.48867249512500166	-0.367711550834616
-0.48861145996875166	-0.3888388668799687
-0.48855042481250166	-0.40784832777960556
-0.48848938965625166	-0.42463384057512693
-0.48842835450000166	-0.4391015341173005
-0.48836731934375166	-0.4511701283488542
-0.48830628418750166	-0.4607716011764445
-0.48824524903125166	-0.4678514442021845
-0.48818421387500166	-0.47236895072894974
-0.48812317871875166	-0.4742975449699535
-0.48806214356250166	-0.4736248403126899
-0.48800110840625166	-0.47035279309126965
-0.48794007325000166	-0.46449764243467706
-0.48787903809375166	-0.45608984574451705
-0.48781800293750166	-0.4451739544197399
-0.48775696778125166	-0.4318083000613905
-0.48769593262500166	-0.4160647771810587
-0.48763489746875166	-0.39802838418534847
-0.48757386231250166	-0.37779673491470206
-0.48751282715625166	-0.35547967620173515
-0.48745179200000166	-0.3311985235624408
-0.48739075684375166	-0.30508543850422065
-0.48732972168750166	-0.27728280804542593
-0.48726868653125166	-0.24794234781080993
-0.48720765137500166	-0.2172243373252363
-0.48714661621875166	-0.18529666900102312
-0.48708558106250166	-0.15233402395322745
-0.48702454590625166	-0.11851689914377418
-0.48696351075000166	-0.08403050424336557
-0.48690247559375166	-0.04906385020506096
-0.48684144043750166	-0.013808710221316607
-0.48678040528125166	0.021541420763461328
-0.48671937012500166	0.056792596884276146
-0.48665833496875166	0.09175117361729478
-0.48659729981250166	0.12622498492480805
-0.48653626465625166	0.16002471146660235
-0.48647522950000166	0.1929643488502901
-0.48641419434375166	0.22486267947792568
-0.48635315918750166	0.25554424573295037
-0.48629212403125166	0.28483998823978535
-0.48623108887500166	0.312588601537194
-0.48617005371875166	0.33863716491515244
-0.48610901856250166	0.36284198562548875
-0.48604798340625166	0.38506960158352516
-0.48598694825000166	0.40519732605182057
-0.48592591309375166	0.4231139234203771
-0.48586487793750166	0.43872041550580726
-0.48580384278125166	0.4519304785903319
-0.48574280762500166	0.46267089177161785
-0.48568177246875166	0.47088209127697134
-0.48562073731250166	0.47651842823731017
-0.48555970215625166	0.4795484000537941
-0.48549866700000166	0.4799548495063588
-0.48543763184375166	0.47773512453390626
-0.48537659668750166	0.47290102232883124
-0.48531556153125166	0.46547874554823776
-0.48525452637500166	0.4555087985294304
-0.48519349121875166	0.44304575551226943
-0.48513245606250166	0.4281579392909153
-0.48507142090625166	0.4109270590325264
-0.48501038575000166	0.3914478253376097
-0.48494935059375166	0.36982732150171765
-0.48488831543750166	0.3461845112052796
-0.48482728028125166	0.3206495508669933
-0.48476624512500166	0.2933630629733555
-0.48470520996875166	0.2644753813239954
-0.48464417481250166	0.23414572463096645
-0.48458313965625166	0.20254132599488875
-0.48452210450000166	0.16983643629815862
-0.48446106934375166	0.136211532086393
-0.48440003418750166	0.10185212662226595
-0.48433899903125166	0.0669478406800483
-0.48427796387500166	0.03169144798588398
-0.48421692871875166	-0.003722455953988781
-0.48415589356250166	-0.039098238832857964
-0.48409485840625166	-0.07424042503808176
-0.48403382325000166	-0.10895491812487357
-0.48397278809375166	-0.14304982280656856
-0.48391175293750166	-0.17633669376616556
-0.48385071778125166	-0.2086315130649189
-0.48378968262500166	-0.2397556844222138
-0.48372864746875166	-0.269537152326244
-0.48366761231250166	-0.297811144755936
-0.48360657715625166	-0.32442123635915093
-0.48354554200000166	-0.3492203034737483
-0.48348450684375166	-0.3720710843392707
-0.48342347168750166	-0.3928471182482076
-0.48336243653125166	-0.41143352057448385
-0.48330140137500166	-0.4277273963124083
-0.48324036621875166	-0.44163860218737927
-0.48317933106250166	-0.45309021586518
-0.48311829590625166	-0.4620188819490319
-0.48305726075000166	-0.46837528152682734
-0.48299622559375166	-0.47212433605591253
-0.48293519043750166	-0.4732454371506294
-0.48287415528125166	-0.4717325619929618
-0.48281312012500166	-0.4675943053684879
-0.48275208496875166	-0.4608538546718716
-0.48269104981250166	-0.4515488370603656
-0.48263001465625166	-0.43973115459304424
-0.48256897950000166	-0.42546666591352417
-0.48250794434375166	-0.40883485113131723
-0.48244690918750166	-0.3899283621446698
-0.48238587403125166	-0.3688525012145283
-0.48232483887500166	-0.34572472336552895
-0.48226380371875166	-0.3206737990959381
-0.48220276856250166	-0.2938393461841898
-0.48214173340625166	-0.2653709079344603
-0.48208069825000166	-0.23542705695721203
-0.48201966309375166	-0.2041748196115908
-0.48195862793750166	-0.17178830889256366
-0.48189759278125166	-0.13844817370992601
-0.48183655762500166	-0.1043404093421771
-0.48177552246875166	-0.06965516766413579
-0.48171448731250166	-0.03458610638731638
-0.48165345215625166	0.0006710866118240069
-0.48159241700000166	0.035919561361470016
-0.48153138184375166	0.07096244468468586
-0.48147034668750166	0.10560399190793104
-0.48140931153125166	0.13965060134689455
-0.48134827637500166	0.1729119061054697
-0.48128724121875166	0.2052018934629836
-0.48122620606250166	0.2363399307667968
-0.48116517090625166	0.2661516037334837
-0.48110413575000166	0.29447003092644103
-0.48104310059375166	0.321136483422045
-0.48098206543750166	0.3460013332651865
-0.48092103028125166	0.3689251320432879
-0.48085999512500166	0.3897790177765177
-0.48079895996875166	0.40844571119667566
-0.48073792481250166	0.42482014963885295
-0.48067688965625166	0.4388098672365903
-0.48061585450000166	0.45033580548400687
-0.48055481934375166	0.4593326212136849
-0.48049378418750166	0.4657489261446154
-0.48043274903125166	0.46954785885656064
-0.48037171387500166	0.47070712772758255
-0.48031067871875166	0.469219091074492
-0.48024964356250166	0.46509097037480934
-0.48018860840625166	0.4583447001199866
-0.48012757325000166	0.44901684422867993
-0.48006653809375166	0.43715840367941367
-0.48000550293750166	0.4228345379410903
-0.47994446778125166	0.4061242247627963
-0.47988343262500166	0.3871197728908826
-0.47982239746875166	0.36592639046918063
-0.47976136231250166	0.34266155934479503
-0.47970032715625166	0.31745436478742695
-0.47963929200000166	0.2904448541855374
-0.47957825684375166	0.26178317661770256
-0.47951722168750166	0.23162882027053447
-0.47945618653125166	0.20014971122714126
-0.47939515137500166	0.16752119285106706
-0.47933411621875166	0.13392521473197733
-0.47927308106250166	0.09954922821884246
-0.47921204590625166	0.06458505658542335
-0.47915101075000166	0.02922799390816001
-0.47908997559375166	-0.006324323465237157
-0.47902894043750166	-0.04187316564295159
-0.47896790528125166	-0.07721964670045192
-0.47890687012500166	-0.11216586185493505
-0.47884583496875166	-0.14651610797159836
-0.47878479981250166	-0.18007781458611796
-0.47872376465625166	-0.21266278497038904
-0.47866272950000166	-0.24408812436571525
-0.47860169434375166	-0.27417727335110986
-0.47854065918750166	-0.3027611347265456
-0.47847962403125166	-0.32967885230589294
-0.47841858887500166	-0.354778786768809
-0.47835755371875166	-0.3779193464335069
-0.47829651856250166	-0.39896989268748323
-0.47823548340625166	-0.4178113178468853
-0.47817444825000166	-0.43433674098160785
-0.47811341309375166	-0.448452281865096
-0.47805237793750166	-0.46007738044759017
-0.47799134278125166	-0.46914536604492985
-0.47793030762500166	-0.47560382032794757
-0.47786927246875166	-0.4794148667404324
-0.47780823731250166	-0.4805554256326469
-0.47774720215625166	-0.47901729185156056
-0.47768616700000166	-0.4748072328652375
-0.47762513184375166	-0.4679469693477707
-0.47756409668750166	-0.45847302199112694
-0.47750306153125166	-0.4464365338498978
-0.47744202637500166	-0.4319030343345567
-0.47738099121875166	-0.41495197831342623
-0.47731995606250166	-0.39567643906629824
-0.47725892090625166	-0.3741825158500878
-0.47719788575000166	-0.35058871153584625
-0.47713685059375166	-0.3250254142946545
-0.47707581543750166	-0.2976340253502263
-0.47701478028125166	-0.2685662847501456
-0.47695374512500166	-0.2379833465285039
-0.47689270996875166	-0.20605491452323188
-0.47683167481250166	-0.17295839698089133
-0.47677063965625166	-0.1388776910629719
-0.47670960450000166	-0.10400235055278072
-0.47664856934375166	-0.06852655262186977
-0.47658753418750166	-0.03264775065821729
-0.47652649903125166	0.0034340875569865243
-0.47646546387500166	0.03951776541556879
-0.47640442871875166	0.07540214807750455
-0.47634339356250166	0.110886888128749
-0.47628235840625166	0.14577390150368857
-0.47622132325000166	0.17986834667674761
-0.47616028809375166	0.21297966572906296
-0.47609925293750166	0.2449227839149229
-0.47603821778125166	0.2755189461537807
-0.47597718262500166	0.3045970131799778
-0.47591614746875166	0.33199415888544925
-0.47585511231250166	0.3575568122248956
-0.47579407715625166	0.3811417890166531
-0.47573304200000166	0.4026167705390265
-0.47567200684375166	0.42186115194354445
-0.47561097168750166	0.4387668529619842
-0.47554993653125166	0.45323882852037595
-0.47548890137500166	0.4651955402023412
-0.47542786621875166	0.4745695041202026
-0.47536683106250166	0.48130773631175994
-0.47530579590625166	0.48537191919474815
-0.47524476075000166	0.48673868348035465
-0.47518372559375166	0.48539979101336744
-0.47512269043750166	0.48136212190262107
-0.47506165528125166	0.4746476683079694
-0.47500062012500166	0.4652934337454469
-0.47493958496875166	0.4533511867480319
-0.47487854981250166	0.4388872565763826
-0.47481751465625166	0.42198208165661405
-0.47475647950000166	0.4027297833483779
-0.47469544434375166	0.38123775724706827
-0.47463440918750166	0.3576258565093659
-0.47457337403125166	0.3320259256186568
-0.47451233887500166	0.30458104061726504
-0.47445130371875166	0.2754445025473027
-0.47439026856250166	0.24477930127334063
-0.47432923340625166	0.21275700914383644
-0.47426819825000166	0.17955673096950198
-0.47420716309375166	0.1453644474275292
-0.47414612793750166	0.11037156891300665
-0.47408509278125166	0.07477406799309357
-0.47402405762500166	0.038771560467377134
-0.47396302246875166	0.0025656445461268904
-0.47390198731250166	-0.033640599664409486
-0.47384095215625166	-0.06964407272915164
-0.47377991700000166	-0.1052430301604001
-0.47371888184375166	-0.1402375832776007
-0.47365784668750166	-0.17443141229813858
-0.47359681153125166	-0.2076326616575773
-0.47353577637500166	-0.23965486042468348
-0.47347474121875166	-0.2703182752486398
-0.47341370606250166	-0.2994506790221037
-0.47335267090625166	-0.3268884436665534
-0.47329163575000166	-0.35247745113127904
-0.47323060059375166	-0.37607389942093217
-0.47316956543750166	-0.39754520984697794
-0.47310853028125166	-0.41677071286418466
-0.47304749512500166	-0.4336423538971109
-0.47298645996875166	-0.4480653041463306
-0.47292542481250166	-0.4599584712493869
-0.47286438965625166	-0.4692550426685331
-0.47280335450000166	-0.4759027837470104
-0.47274231934375166	-0.4798643344903648
-0.47268128418750166	-0.4811175230306104
-0.47262024903125166	-0.47965539285834735
-0.47255921387500166	-0.47548628840354873
-0.47249817871875166	-0.46863382574119306
-0.47243714356250166	-0.4591367379672513
-0.47237610840625166	-0.4470487056968275
-0.47231507325000166	-0.4324379905092153
-0.47225403809375166	-0.4153871305050687
-0.47219300293750166	-0.39599244477299866
-0.47213196778125166	-0.3743634781355247
-0.47207093262500166	-0.3506224342024263
-0.47200989746875166	-0.32490344063689247
-0.47194886231250166	-0.29735185529550456
-0.47188782715625166	-0.26812339932613827
-0.47182679200000166	-0.23738327790727157
-0.47176575684375166	-0.20530533221692038
-0.47170472168750166	-0.17207096799032243
-0.47164368653125166	-0.13786814171091324
-0.47158265137500166	-0.10289042318909754
-0.47152161621875166	-0.06733571988000482
-0.47146058106250166	-0.03140529260267597
-0.47139954590625166	0.00469736556896188
-0.47133851075000166	0.04076786320264018
-0.47127747559375166	0.07660177989537284
-0.47121644043750166	0.11199603635584
-0.47115540528125166	0.14675004652641713
-0.47109437012500166	0.1806666590724452
-0.47103333496875166	0.21355346274777737
-0.47097229981250166	0.2452238183669756
-0.47091126465625166	0.27549792211099666
-0.47085022950000166	0.30420373697841746
-0.47078919434375166	0.3311780972714507
-0.47072815918750166	0.3562676402240718
-0.47066712403125166	0.37932948381304227
-0.47060608887500166	0.4002322868285618
-0.47054505371875166	0.41885685050849586
-0.47048401856250166	0.4350968123860912
-0.47042298340625166	0.4488593208654934
