Time	Frequency
-0.5000250577812437	0.4265135668910897
-0.49996402262499373	0.415730654530822
-0.49990298746874373	0.40287138359292307
-0.49984195231249373	0.3880003255942312
-0.49978091715624373	0.37119212991193984
-0.49971988199999373	0.3525311676875775
-0.49965884684374373	0.332110954453391
-0.49959781168749373	0.31003392797462076
-0.49953677653124373	0.2864108046412583
-0.49947574137499373	0.2613599068509646
-0.49941470621874373	0.23500692843295923
-0.49935367106249373	0.2074839440313966
-0.49929263590624373	0.17892888435911491
-0.49923160074999373	0.14948503012878692
-0.49917056559374373	0.11929997781699425
-0.49910953043749373	0.08852512228326818
-0.49904849528124373	0.05731484024428455
-0.49898746012499373	0.025825781081425848
-0.49892642496874373	-0.005784072907972763
-0.49886538981249373	-0.03735605951952647
-0.49880435465624373	-0.06873154044844851
-0.49874331949999373	-0.09975303765221757
-0.49868228434374373	-0.1302646327548597
-0.49862124918749373	-0.16011291159348706
-0.49856021403124373	-0.18914785900394468
-0.49849917887499373	-0.2172233732719762
-0.49843814371874373	-0.24419810095237574
-0.49837710856249373	-0.26993627030239975
-0.49831607340624373	-0.29430812522003114
-0.49825503824999373	-0.3171907436309342
-0.49819400309374373	-0.33846874242477004
-0.49813296793749373	-0.35803448234795376
-0.49807193278124373	-0.3757891093578741
-0.49801089762499373	-0.39164273472727007
-0.49794986246874373	-0.4055148032985712
-0.49788882731249373	-0.4173349080301327
-0.49782779215624373	-0.4270427521917144
-0.49776675699999373	-0.4345885919835118
-0.49770572184374373	-0.4399335733454564
-0.49764468668749373	-0.4430498158272603
-0.49758365153124373	-0.44392059973527026
-0.49752261637499373	-0.4425404755654512
-0.49746158121874373	-0.438915265537244
-0.49740054606249373	-0.43306205704197254
-0.49733951090624373	-0.42500912573315663
-0.49727847574999373	-0.4147957686823851
-0.49721744059374373	-0.40247219164675935
-0.49715640543749373	-0.3880991461217913
-0.49709537028124373	-0.37174771978756954
-0.49703433512499373	-0.35349902793117444
-0.49697329996874373	-0.33344360492663816
-0.49691226481249373	-0.31168121510045566
-0.49685122965624373	-0.2883202513767316
-0.49679019449999373	-0.26347705660262344
-0.49672915934374373	-0.23727561527560356
-0.49666812418749373	-0.2098467408188061
-0.49660708903124373	-0.18132744972850173
-0.49654605387499373	-0.15186037832152385
-0.49648501871874373	-0.12159295245660452
-0.49642398356249373	-0.09067669732708333
-0.49636294840624373	-0.05926653344503796
-0.49630191324999373	-0.027519929939773504
-0.49624087809374373	0.004403908863002697
-0.49617984293749373	0.03634470028085885
-0.49611880778124373	0.06814202509309089
-0.49605777262499373	0.09963609211875334
-0.49599673746874373	0.1306684816149042
-0.49593570231249373	0.16108303959465517
-0.49587466715624373	0.19072658043692006
-0.49581363199999373	0.21944967979013072
-0.49575259684374373	0.2471074494126668
-0.49569156168749373	0.2735602264106206
-0.49563052653124373	0.2986743188036741
-0.49556949137499373	0.3223226507231533
-0.49550845621874373	0.3443853767327002
-0.49544742106249373	0.3647506019664297
-0.49538638590624373	0.38331477631027966
-0.49532535074999373	0.3999833366783215
-0.49526431559374373	0.41467121650596955
-0.49520328043749373	0.42730313332684966
-0.49514224528124373	0.43781410288351674
-0.49508121012499373	0.44614972258152474
-0.49502017496874373	0.45226647044143864
-0.49495913981249373	0.4561318704674478
-0.49489810465624373	0.45772473441520595
-0.49483706949999373	0.45703527252916853
-0.49477603434374373	0.45406506035576755
-0.49471499918749373	0.448827148351092
-0.49465396403124373	0.4413459539572902
-0.49459292887499373	0.4316571135201203
-0.49453189371874373	0.41980738185690025
-0.49447085856249373	0.40585434749939314
-0.49440982340624373	0.3898661687778573
-0.49434878824999373	0.3719212605160936
-0.49428775309374373	0.35210784236563697
-0.49422671793749373	0.33052359845640644
-0.49416568278124373	0.30727510469421127
-0.49410464762499373	0.282477322907163
-0.49404361246874373	0.256253104991688
-0.49398257731249373	0.22873244008772103
-0.49392154215624373	0.20005190691233965
-0.49386050699999373	0.17035402410549552
-0.49379947184374373	0.13978641495151928
-0.49373843668749373	0.10850114085172685
-0.49367740153124373	0.07665398105375272
-0.49361636637499373	0.0444036152772837
-0.49355533121874373	0.011910758378603264
-0.49349429606249373	-0.020662549774471937
-0.49343326090624373	-0.0531536944264671
-0.49337222574999373	-0.08540053408209472
-0.49331119059374373	-0.11724203944716309
-0.49325015543749373	-0.1485190155464497
-0.49318912028124373	-0.17907515628552048
-0.49312808512499373	-0.20875771415080133
-0.49306704996874373	-0.23741808492452518
-0.49300601481249373	-0.264912836316609
-0.49294497965624373	-0.29110441304614293
-0.49288394449999373	-0.3158615029756388
-0.49282290934374373	-0.3390600465190562
-0.49276187418749373	-0.36058386385009905
-0.49270083903124373	-0.3803249117999392
-0.49263980387499373	-0.39818411518447766
-0.49257876871874373	-0.4140719133490991
-0.49251773356249373	-0.42790844945794143
-0.49245669840624373	-0.4396241484532461
-0.49239566324999373	-0.4491601348533389
-0.49233462809374373	-0.45646835431027244
-0.49227359293749373	-0.46151192444551276
-0.49221255778124373	-0.4642653580209309
-0.49215152262499373	-0.4647146117685116
-0.49209048746874373	-0.462857194617372
-0.49202945231249373	-0.4587022029335519
-0.49196841715624373	-0.45227028219525817
-0.49190738199999373	-0.4435934821706678
-0.49184634684374373	-0.43271513089995206
-0.49178531168749373	-0.4196896769205499
-0.49172427653124373	-0.4045822710875797
-0.49166324137499373	-0.3874686124111105
-0.49160220621874373	-0.36843450023849367
-0.49154117106249373	-0.3475752884366575
-0.49148013590624373	-0.32499569478019635
-0.49141910074999373	-0.3008089777478245
-0.49135806559374373	-0.27513649892143516
-0.49129703043749373	-0.24810723100154303
-0.49123599528124373	-0.2198568433752115
-0.49117496012499373	-0.19052724251876893
-0.49111392496874373	-0.16026584040672878
-0.49105288981249373	-0.12922468285657362
-0.49099185465624373	-0.09755973393031772
-0.49093081949999373	-0.06543026095153566
-0.49086978434374373	-0.03299778661450791
-0.49080874918749373	-0.00042536016951810746
-0.49074771403124373	0.03212310847476085
-0.49068667887499373	0.06448397119661552
-0.49062564371874373	0.0964943562519399
-0.49056460856249373	0.12799322480222491
-0.49050357340624373	0.1588221340363486
-0.49044253824999373	0.1888258041680397
-0.49038150309374373	0.21785332952104003
-0.49032046793749373	0.24575862266271958
-0.49025943278124373	0.2724011339559574
-0.49019839762499373	0.29764682441443807
-0.49013736246874373	0.32136863208820815
-0.49007632731249373	0.3434471373992652
-0.49001529215624373	0.3637712362494598
-0.48995425699999373	0.38223869049712966
-0.48989322184374373	0.39875659147421894
-0.48983218668749373	0.4132418563057631
-0.48977115153124373	0.4256217624519672
-0.48971011637499373	0.4358341115637694
-0.48964908121874373	0.4438276631371152
-0.48958804606249373	0.4495625007032233
-0.48952701090624373	0.45301001227143267
-0.48946597574999373	0.45415318156650325
-0.48940494059374373	0.45298669971598643
-0.48934390543749373	0.4495169015690434
-0.48928287028124373	0.44376178074942374
-0.48922183512499373	0.43575094658920255
-0.48916079996874373	0.4255253981034509
-0.48909976481249373	0.41313737260916034
-0.48903872965624373	0.3986500962135479
-0.48897769449999373	0.38213738495440003
-0.48891665934374373	0.3636834260581384
-0.48885562418749373	0.3433821743471869
-0.48879458903124373	0.32133700009505384
-0.48873355387499373	0.2976601970066088
-0.48867251871874373	0.27247224641581164
-0.48861148356249373	0.24590143116960325
-0.48855044840624373	0.21808298776851054
-0.48848941324999373	0.18915858323575507
-0.48842837809374373	0.15927553735253314
-0.48836734293749373	0.12858594523998182
-0.48830630778124373	0.09724622653485764
-0.48824527262499373	0.06541603203568845
-0.48818423746874373	0.033257521278329025
-0.48812320231249373	0.0009346215606089613
-0.48806216715624373	-0.03138786645260476
-0.48800113199999373	-0.0635450768529952
-0.48794009684374373	-0.0953730366121684
-0.48787906168749373	-0.12670925789140552
-0.48781802653124373	-0.15739375436073
-0.48775699137499373	-0.18726988242382767
-0.48769595621874373	-0.21618492340281129
-0.48763492106249373	-0.243991063387923
-0.48757388590624373	-0.2705460994591219
-0.48751285074999373	-0.2957140806576163
-0.48745181559374373	-0.31936610472245824
-0.48739078043749373	-0.34138092166213085
-0.48732974528124373	-0.3616455269351935
-0.48726871012499373	-0.3800558580780262
-0.48720767496874373	-0.3965171926900528
-0.48714663981249373	-0.4109446503380114
-0.48708560465624373	-0.42326375619605966
-0.48702456949999373	-0.4334106725111228
-0.48696353434374373	-0.44133258998346364
-0.48690249918749373	-0.44698803815190763
-0.48684146403124373	-0.4503470286756292
-0.48678042887499373	-0.45139127390211764
-0.48671939371874373	-0.4501142527231732
-0.48665835856249373	-0.4465212511149693
-0.48659732340624373	-0.44062936933548486
-0.48653628824999373	-0.43246740638563513
-0.48647525309374373	-0.42207574121256825
-0.48641421793749373	-0.4095061265935389
-0.48635318278124373	-0.3948214275872264
-0.48629214762499373	-0.3780953327093353
-0.48623111246874373	-0.359411936723072
-0.48617007731249373	-0.3388653589866412
-0.48610904215624373	-0.3165592952553415
-0.48604800699999373	-0.2926063928430987
-0.48598697184374373	-0.26712778099058665
-0.48592593668749373	-0.2402524763630298
-0.48586490153124373	-0.21211661965027015
-0.48580386637499373	-0.18286281630933973
-0.48574283121874373	-0.15263957193898767
-0.48568179606249373	-0.12160037682289707
-0.48562076090624373	-0.08990280237603107
-0.48555972574999373	-0.05770812202229798
-0.48549869059374373	-0.025180154222400695
-0.48543765543749373	0.0075156467741556605
-0.48537662028124373	0.040212635288189046
-0.48531558512499373	0.07274416728559113
-0.48525454996874373	0.10494437502840444
-0.48519351481249373	0.13664887504639497
-0.48513247965624373	0.16769576833881528
-0.48507144449999373	0.19792640281804655
-0.48501040934374373	0.22718615066123676
-0.48494937418749373	0.25532521327963426
-0.48488833903124373	0.28219946635683674
-0.48482730387499373	0.3076710901489454
-0.48476626871874373	0.331609273460627
-0.48470523356249373	0.35389101062312817
-0.48464419840624373	0.3744015889496563
-0.48458316324999373	0.3930352565496653
-0.48452212809374373	0.40969574751355325
-0.48446109293749373	0.4242967395140449
-0.48440005778124373	0.4367623898862403
-0.48433902262499373	0.44702765240748993
-0.48427798746874373	0.455038600907046
-0.48421695231249373	0.46075278340798603
-0.48415591715624373	0.4641394234968627
-0.48409488199999373	0.465179503041187
-0.48403384684374373	0.4638659747458658
-0.48397281168749373	0.46020377276557195
-0.48391177653124373	0.4542097372264029
-0.48385074137499373	0.44591261132271737
-0.48378970621874373	0.43535287692931046
-0.48372867106249373	0.42258251738903996
-0.48366763590624373	0.40766481838128393
-0.48360660074999373	0.3906740330050975
-0.48354556559374373	0.37169495252090223
-0.48348453043749373	0.3508226047953333
-0.48342349528124373	0.32816165220110466
-0.48336246012499373	0.3038258799514818
-0.48330142496874373	0.27793777466126673
-0.48324038981249373	0.2506276716164267
-0.48317935465624373	0.22203321349705513
-0.48311831949999373	0.19229877574484455
-0.48305728434374373	0.1615744571525441
-0.48299624918749373	0.13001552307127157
-0.48293521403124373	0.09778163765156474
-0.48287417887499373	0.06503584857909875
-0.48281314371874373	0.03194400370070558
-0.48275210856249373	-0.0013262675877763056
-0.48269107340624373	-0.03460636442572092
-0.48263003824999373	-0.06772742375703378
-0.48256900309374373	-0.1005215420807821
-0.48250796793749373	-0.13282224248108673
-0.48244693278124373	-0.16446536510174675
-0.48238589762499373	-0.19529039482759053
-0.48232486246874373	-0.2251405940188498
-0.48226382731249373	-0.2538641046282177
-0.48220279215624373	-0.2813150449110357
-0.48214175699999373	-0.30735364574171464
-0.48208072184374373	-0.3318473538631562
-0.48201968668749373	-0.3546715469310054
-0.48195865153124373	-0.3757099305353328
-0.48189761637499373	-0.39485525342283434
-0.48183658121874373	-0.41200996523744826
-0.48177554606249373	-0.4270865652551866
-0.48171451090624373	-0.4400080481841662
-0.48165347574999373	-0.4507084827068512
-0.48159244059374373	-0.4591331396980581
-0.48153140543749373	-0.46523889421540443
-0.48147037028124373	-0.46899445300293446
-0.48140933512499373	-0.47038043908401067
-0.48134829996874373	-0.4693895980111247
-0.48128726481249373	-0.4660267734387418
-0.48122622965624373	-0.4603088816740278
-0.48116519449999373	-0.4522648997784241
-0.48110415934374373	-0.44193565253767764
-0.48104312418749373	-0.4293736051233305
-0.48098208903124373	-0.41464269903596535
-0.48092105387499373	-0.39781790256444066
-0.48086001871874373	-0.37898488463048147
-0.48079898356249373	-0.35823963488834015
-0.48073794840624373	-0.3356879047905136
-0.48067691324999373	-0.3114446636244555
-0.48061587809374373	-0.28563358906698244
-0.48055484293749373	-0.25838638375641254
-0.48049380778124373	-0.22984210431585314
-0.48043277262499373	-0.20014648183326603
-0.48037173746874373	-0.16945111874220398
-0.48031070231249373	-0.13791282951174463
-0.48024966715624373	-0.10569273002254863
-0.48018863199999373	-0.07295541973420212
-0.48012759684374373	-0.03986823409242103
-0.48006656168749373	-0.00660033013960206
-0.48000552653124373	0.026678244675478215
-0.47994449137499373	0.05979732290936581
-0.47988345621874373	0.09258745595519784
-0.47982242106249373	0.12488093933506271
-0.47976138590624373	0.15651261029571695
-0.47970035074999373	0.1873205186458151
-0.47963931559374373	0.21714702672310157
-0.47957828043749373	0.24583953295844108
-0.47951724528124373	0.27325105257087756
-0.47945621012499373	0.2992413324957804
-0.47939517496874373	0.3236772787714347
-0.47933413981249373	0.3464337144075427
-0.47927310465624373	0.36739417493082593
-0.47921206949999373	0.3864513043421524
-0.47915103434374373	0.40350748579442397
-0.47908999918749373	0.41847539475001516
-0.47902896403124373	0.4312784367900846
-0.47896792887499373	0.4418510357239746
-0.47890689371874373	0.4501391213272172
-0.47884585856249373	0.4561003448084339
-0.47878482340624373	0.4597042789928195
-0.47872378824999373	0.4609326291559335
-0.47866275309374373	0.45977928434717036
-0.47860171793749373	0.45625040402023215
-0.47854068278124373	0.4503643440475357
-0.47847964762499373	0.44215158643981783
-0.47841861246874373	0.43165459472724643
-0.47835757731249373	0.41892760735246354
-0.47829654215624373	0.40403631489906316
-0.47823550699999373	0.3870575835600472
-0.47817447184374373	0.36807907121363226
-0.47811343668749373	0.3471986837417438
-0.47805240153124373	0.3245241958720994
-0.47799136637499373	0.30017266449143043
-0.47793033121874373	0.2742697522762712
-0.47786929606249373	0.24694919168182525
-0.47780826090624373	0.21835207407037321
-0.47774722574999373	0.18862606016355823
-0.47768619059374373	0.15792469219029973
-0.47762515543749373	0.12640661580788345
-0.47756412028124373	0.0942346754606049
-0.47750308512499373	0.06157517419664962
-0.47744204996874373	0.028597020001019657
-0.47738101481249373	-0.0045293038873153125
-0.47731997965624373	-0.037632345994058104
-0.47725894449999373	-0.07054076958055576
-0.47719790934374373	-0.10308431845622215
-0.47713687418749373	-0.13509429932960326
-0.47707583903124373	-0.1664048925091044
-0.47701480387499373	-0.19685387972460974
-0.47695376871874373	-0.2262832024587446
-0.47689273356249373	-0.2545401955431162
-0.47683169840624373	-0.2814781840825622
-0.47677066324999373	-0.30695709785738307
-0.47670962809374373	-0.33084449574424024
-0.47664859293749373	-0.3530160793005189
-0.47658755778124373	-0.37335624148086854
-0.47652652262499373	-0.39175891750946623
-0.47646548746874373	-0.408127979236369
-0.47640445231249373	-0.42237770182104944
-0.47634341715624373	-0.4344333320256747
-0.47628238199999373	-0.4442313955095266
-0.47622134684374373	-0.4517200553418947
-0.47616031168749373	-0.4568593866435532
-0.47609927653124373	-0.4596215820200266
-0.47603824137499373	-0.4599911157152983
-0.47597720621874373	-0.45796480993221217
-0.47591617106249373	-0.4535518740454346
-0.47585513590624373	-0.44677385833125344
-0.47579410074999373	-0.4376645465123392
-0.47573306559374373	-0.4262697978815784
-0.47567203043749373	-0.41264730129098676
-0.47561099528124373	-0.3968662906147642
-0.47554996012499373	-0.37900722306758583
-0.47548892496874373	-0.35916130198159885
-0.47542788981249373	-0.3374300630005355
-0.47536685465624373	-0.3139249159318611
-0.47530581949999373	-0.2887663711115811
-0.47524478434374373	-0.2620836497745479
-0.47518374918749373	-0.23401394530031494
-0.47512271403124373	-0.20470159341879837
-0.47506167887499373	-0.1742975830451608
-0.47500064371874373	-0.14295849444105477
-0.47493960856249373	-0.11084589406718122
-0.47487857340624373	-0.07812553322143559
-0.47481753824999373	-0.04496623429493419
-0.47475650309374373	-0.011539253673673287
-0.47469546793749373	0.02198254558922882
-0.47463443278124373	0.05542587061302493
-0.47457339762499373	0.0886177254523858
-0.47451236246874373	0.12138611599370562
-0.47445132731249373	0.15356135676195604
-0.47439029215624373	0.1849766602892306
-0.47432925699999373	0.2154689699604836
-0.47426822184374373	0.24488002470256098
-0.47420718668749373	0.27305697523212685
-0.47414615153124373	0.2998533326317911
-0.47408511637499373	0.32512959657107665
-0.47402408121874373	0.3487540206478508
-0.47396304606249373	0.3706034099298366
-0.47390201090624373	0.3905635967540253
-0.47384097574999373	0.40853012609443123
-0.47377994059374373	0.4244087708269859
-0.47371890543749373	0.4381160884562472
-0.47365787028124373	0.4495797795450694
-0.47359683512499373	0.45873905913992113
-0.47353579996874373	0.46554510583530195
-0.47347476481249373	0.4699611609701412
-0.47341372965624373	0.4719628178006075
-0.47335269449999373	0.47153815978649605
-0.47329165934374373	0.4686877676590963
-0.47323062418749373	0.4634247858381961
-0.47316958903124373	0.45577483708911987
-0.47310855387499373	0.44577587617126635
-0.47304751871874373	0.43347803970585014
-0.47298648356249373	0.41894339444742723
-0.47292544840624373	0.4022455399932484
-0.47286441324999373	0.3834693663368183
-0.47280337809374373	0.3627105386716747
-0.47274234293749373	0.3400749770559547
-0.47268130778124373	0.31567843293300807
-0.47262027262499373	0.28964574318121367
-0.47255923746874373	0.26211036425821754
-0.47249820231249373	0.23321348617081508
-0.47243716715624373	0.2031034533467069
-0.47237613199999373	0.17193507086562043
-0.47231509684374373	0.13986842536453542
-0.47225406168749373	0.10706859746585984
-0.47219302653124373	0.07370444471053604
-0.47213199137499373	0.03994769720571244
-0.47207095621874373	0.005972452240125129
-0.47200992106249373	-0.02804624781662055
-0.47194888590624373	-0.061932879764724745
-0.47188785074999373	-0.09551251430826187
-0.47182681559374373	-0.12861196696282381
-0.47176578043749373	-0.16106011364679756
-0.47170474528124373	-0.19268938393204904
-0.47164371012499373	-0.2233363421858093
-0.47158267496874373	-0.25284238961963496
-0.47152163981249373	-0.2810550438703682
-0.47146060465624373	-0.3078281853545534
-0.47139956949999373	-0.33302327217233735
-0.47133853434374373	-0.35650985995280254
-0.47127749918749373	-0.37816612581839576
-0.47121646403124373	-0.39787993299498087
-0.47115542887499373	-0.41554899198066564
-0.47109439371874373	-0.4310815915767725
-0.47103335856249373	-0.4443971031035906
-0.47097232340624373	-0.4554262997895943
-0.47091128824999373	-0.46411182755787606
-0.47085025309374373	-0.47040840263559724
-0.47078921793749373	-0.4742831381482592
-0.47072818278124373	-0.4757156953280462
-0.47066714762499373	-0.47469835440535973
-0.47060611246874373	-0.47123611823850187
-0.47054507731249373	-0.46534666633423616
-0.47048404215624373	-0.45706025550091
-0.47042300699999373	-0.4464195953152138
