Time	Frequency
-0.5000605585000031	-1.790898716097896e-25
-0.4999995233437531	-2.6557815099066347e-25
-0.4999384881875031	-3.513738053345147e-25
-0.4998774530312531	-4.362297719240675e-25
-0.4998164178750031	-5.199024233439709e-25
-0.4997553827187531	-6.021506017416184e-25
-0.4996943475625031	-6.827373698278523e-25
-0.4996333124062531	-7.614306644859673e-25
-0.4995722772500031	-8.380029796754385e-25
-0.4995112420937531	-9.12233587468085e-25
-0.4994502069375031	-9.839076519757346e-25
-0.4993891717812531	-1.0528176975871286e-24
-0.4993281366250031	-1.1187642569960741e-24
-0.4992671014687531	-1.1815557173794359e-24
-0.4992060663125031	-1.2410098025270746e-24
-0.4991450311562531	-1.2969533068348453e-24
-0.4990839960000031	-1.3492231482866266e-24
-0.4990229608437531	-1.3976664886547513e-24
-0.4989619256875031	-1.4421413265688183e-24
-0.4989008905312531	-1.4825169819168584e-24
-0.4988398553750031	-1.5186741484815026e-24
-0.4987788202187531	-1.5505057743854119e-24
-0.4987177850625031	-1.577916830062864e-24
-0.4986567499062531	-1.600824886600984e-24
-0.4985957147500031	-1.619160401884904e-24
-0.4985346795937531	-1.6328666476598895e-24
-0.4984736444375031	-1.6419001730401052e-24
-0.4984126092812531	-1.6462308122790378e-24
-0.4983515741250031	-1.6458416945742066e-24
-0.4982905389687531	-1.6407294867733399e-24
-0.4982295038125031	-1.6309042696093647e-24
-0.4981684686562531	-1.6163895283895299e-24
-0.4981074335000031	-1.597222196325673e-24
-0.4980463983437531	-1.5734524264814712e-24
-0.4979853631875031	-1.5451435373314215e-24
-0.4979243280312531	-1.5123718575839176e-24
-0.4978632928750031	-1.4752263842916377e-24
-0.4978022577187531	-1.4338087813687777e-24
-0.4977412225625031	-1.388232791369823e-24
-0.4976801874062531	-1.3386241666299686e-24
-0.4976191522500031	-1.2851202903960203e-24
-0.4975581170937531	-1.227869502829458e-24
-0.4974970819375031	-1.1670312430285404e-24
-0.4974360467812531	-1.1027750030534038e-24
-0.4973750116250031	-1.0352802190175102e-24
-0.4973139764687531	-9.647357170362e-25
-0.4972529413125031	-8.913390657265908e-25
-0.4971919061562531	-8.152960805294307e-25
-0.4971308710000031	-7.368202996376465e-25
-0.4970698358437531	-6.561323977608264e-25
-0.4970088006875031	-5.734592060373098e-25
-0.4969477655312531	-4.890337755195975e-25
-0.4968867303750031	-4.030939924745338e-25
-0.4968256952187531	-3.1588219677750906e-25
-0.4967646600625031	-2.2764485096989695e-25
-0.4967036249062531	-1.3863106577392812e-25
-0.4966425897500031	-4.9092555703666764e-26
-0.4965815545937531	4.071717177808169e-26
-0.4965205194375031	1.3054405089336523e-25
-0.4964594842812531	2.201335244796265e-25
-0.4963984491250031	3.092314826500471e-25
-0.4963374139687531	3.975853221120934e-25
-0.4962763788125031	4.84944261650126e-25
-0.4962153436562531	5.71060015866406e-25
-0.4961543085000031	6.556879870103576e-25
-0.4960932733437531	7.385875042832413e-25
-0.4960322381875031	8.195225296054523e-25
-0.4959712030312531	8.98262778843062e-25
-0.4959101678750031	9.745837879279402e-25
-0.4958491327187531	1.048267976023942e-24
-0.4957880975625031	1.1191050901697308e-24
-0.4957270624062531	1.1868928570019621e-24
-0.4956660272500031	1.251437538261028e-24
-0.4956049920937531	1.3125545498533436e-24
-0.4955439569375031	1.3700688869963081e-24
-0.4954829217812531	1.4238157080109583e-24
-0.4954218866250031	1.473640879554145e-24
-0.4953608514687531	1.5194011152571419e-24
-0.4952998163125031	1.5609648886864035e-24
-0.4952387811562531	1.59821228551409e-24
-0.4951777460000031	1.6310357784315518e-24
-0.4951167108437531	1.6593402370192003e-24
-0.4950556756875031	1.68304338193141e-24
-0.4949946405312531	1.702076063947554e-24
-0.4949336053750031	1.716382102946342e-24
-0.4948725702187531	1.725919121103945e-24
-0.4948115350625031	1.7306579546864376e-24
-0.4947504999062531	1.7305831798406753e-24
-0.4946894647500031	1.7256931617941118e-24
-0.4946284295937531	1.715999748827989e-24
-0.4945673944375031	1.7015286284814872e-24
-0.4945063592812531	1.6823190141256852e-24
-0.4944453241250031	1.6584236001226873e-24
-0.4943842889687531	1.629908478232454e-24
-0.4943232538125031	1.5968528631096198e-24
-0.4942622186562531	1.5593489474368307e-24
-0.4942011835000031	1.517501596915495e-24
-0.4941401483437531	1.4714280723108975e-24
-0.4940791131875031	1.4212577498869577e-24
-0.4940180780312531	1.3671316315215616e-24
-0.4939570428750031	1.3092020777761716e-24
-0.4938960077187531	1.2476323494777669e-24
-0.4938349725625031	1.1825960433935466e-24
-0.4937739374062531	1.1142767580961516e-24
-0.4937129022500031	1.0428675000346648e-24
-0.4936518670937531	9.685700708880197e-25
-0.4935908319375031	8.9159457240859e-25
-0.4935297967812531	8.121588721397346e-25
-0.4934687616250031	7.304878174520249e-25
-0.4934077264687531	6.468127117634971e-25
-0.4933466913125031	5.613706885134409e-25
-0.4932856561562531	4.744038383812133e-25
-0.4932246210000031	3.8615887723774025e-25
-0.4931635858437531	2.9688595286559423e-25
-0.4931025506875031	2.068384346027017e-25
-0.4930415155312531	1.1627190681202992e-25
-0.4929804803750031	2.544325128714244e-26
-0.4929194452187531	-6.538937580607656e-26
-0.4928584100625031	-1.5596821502871306e-25
-0.4927973749062531	-2.4603599482456543e-25
-0.4927363397500031	-3.3533673080099236e-25
-0.4926753045937531	-4.23616836358725e-25
-0.4926142694375031	-5.106254136310575e-25
-0.4925532342812531	-5.961152120261626e-25
-0.4924921991250031	-6.798432984877404e-25
-0.4924311639687531	-7.615716800105037e-25
-0.4923701288125031	-8.410681360609383e-25
-0.4923090936562531	-9.181066866341497e-25
-0.4922480585000031	-9.924684447405267e-25
-0.4921870233437531	-1.0639420900236258e-24
-0.4921259881875031	-1.1323245680456079e-24
-0.4920649530312531	-1.1974216894317606e-24
-0.4920039178750031	-1.2590484448107333e-24
-0.4919428827187531	-1.3170301119010339e-24
-0.4918818475625031	-1.3712019898104229e-24
-0.4918208124062531	-1.4214104874105167e-24
-0.4917597772500031	-1.4675134320232047e-24
-0.4916987420937531	-1.5093801255949211e-24
-0.4916377069375031	-1.5468922967195858e-24
-0.4915766717812531	-1.5799439532363873e-24
-0.4915156366250031	-1.6084420184427519e-24
-0.4914546014687531	-1.632306342506047e-24
-0.4913935663125031	-1.6514701559445951e-24
-0.4913325311562531	-1.665880224497422e-24
-0.4912714960000031	-1.675496762829327e-24
-0.4912104608437531	-1.6802939924615815e-24
-0.4911494256875031	-1.6802598289646545e-24
-0.4910883905312531	-1.6753960552350164e-24
-0.4910273553750031	-1.665718471914103e-24
-0.4909663202187531	-1.651256581787234e-24
-0.4909052850625031	-1.6320537134969832e-24
-0.4908442499062531	-1.6081668539264077e-24
-0.4907832147500031	-1.5796664222959218e-24
-0.4907221795937531	-1.5466361606612032e-24
-0.4906611444375031	-1.509172860841998e-24
-0.4906001092812531	-1.4673860552818346e-24
-0.4905390741250031	-1.4213977966413644e-24
-0.4904780389687531	-1.3713422014404586e-24
-0.4904170038125031	-1.3173651453472144e-24
-0.4903559686562531	-1.2596238555331446e-24
-0.4902949335000031	-1.1982863006476067e-24
-0.4902338983437531	-1.1335311006059132e-24
-0.4901728631875031	-1.065546447047467e-24
-0.4901118280312531	-9.94530041155217e-25
-0.4900507928750031	-9.206884879128167e-25
-0.4899897577187531	-8.442361784030341e-25
-0.4899287225625031	-7.653955046394209e-25
-0.4898676874062531	-6.843955579920832e-25
-0.4898066522500031	-6.014717146744567e-25
-0.4897456170937531	-5.168650128803152e-25
-0.4896845819375031	-4.308213179899804e-25
-0.4896235467812531	-3.4359081737485273e-25
-0.4895625116250031	-2.554269555834246e-25
-0.4895014764687531	-1.6658613776577158e-25
-0.4894404413125031	-7.732671538890525e-26
-0.4893794061562531	1.2091865117986472e-26
-0.4893183710000031	1.0140931324713877e-25
-0.4892573358437531	1.9036589870616652e-25
-0.4891963006875031	2.787028523482859e-25
-0.4891352655312531	3.661627440530466e-25
-0.4890742303750031	4.524911744520569e-25
-0.4890131952187531	5.374367373672429e-25
-0.4889521600625031	6.207517497453604e-25
-0.4888911249062531	7.02193540332167e-25
-0.4888300897500031	7.815246565025955e-25
-0.4887690545937531	8.58513614309859e-25
-0.4887080194375031	9.329358214922676e-25
-0.4886469842812531	1.0045739791799033e-24
-0.4885859491250031	1.0732187429406038e-24
-0.4885249139687531	1.1386695221074687e-24
-0.4884638788125031	1.200734854885011e-24
-0.4884028436562531	1.2592330258786707e-24
-0.4883418085000031	1.3139926291070477e-24
-0.4882807733437531	1.3648530946639657e-24
-0.4882197381875031	1.411665019825982e-24
-0.4881587030312531	1.4542907793477324e-24
-0.4880976678750031	1.4926049123612704e-24
-0.4880366327187531	1.5264942032577983e-24
-0.4879755975625031	1.55585847778449e-24
-0.4879145624062531	1.5806106121405233e-24
-0.4878535272500031	1.600676691950953e-24
-0.4877924920937531	1.6159966149635085e-24
-0.4877314569375031	1.6265238577686927e-24
-0.4876704217812531	1.632225876159409e-24
-0.4876093866250031	1.6330841687210695e-24
-0.4875483514687531	1.6290941927018316e-24
-0.4874873163125031	1.6202656026285232e-24
-0.4874262811562531	1.606622053691334e-24
-0.4873652460000031	1.5882012153501318e-24
-0.4873042108437531	1.5650546765095444e-24
-0.4872431756875031	1.5372477732481788e-24
-0.4871821405312531	1.5048594146912145e-24
-0.4871211053750031	1.4679818778829182e-24
-0.4870600702187531	1.4267205323070716e-24
-0.4869990350625031	1.3811935617278068e-24
-0.4869379999062531	1.3315315267969398e-24
-0.4868769647500031	1.2778772493009262e-24
-0.4868159295937531	1.2203850583215348e-24
-0.4867548944375031	1.1592205564132987e-24
-0.4866938592812531	1.094560328316933e-24
-0.4866328241250031	1.0265908000681355e-24
-0.4865717889687531	9.555085524905011e-25
-0.4865107538125031	8.815191278023633e-25
-0.4864497186562531	8.048365223752764e-25
-0.4863886835000031	7.256830142419928e-25
-0.4863276483437531	6.442878500207311e-25
-0.4862666131875031	5.608871547655313e-25
-0.4862055780312531	4.75722974572968e-25
-0.4861445428750031	3.890425402251343e-25
-0.4860835077187531	3.010977930855616e-25
-0.4860224725625031	2.1214435347784277e-25
-0.4859614374062531	1.224410866178828e-25
-0.4859004022500031	3.2249078615069035e-26
-0.4858393670937531	-5.816897692158685e-26
-0.4857783319375031	-1.485494637913452e-25
-0.4857172967812531	-2.3862888056590755e-25
-0.4856562616250031	-3.281441959945714e-25
-0.4855952264687531	-4.168341273896239e-25
-0.4855341913125031	-5.044393619536383e-25
-0.4854731561562531	-5.907036896668662e-25
-0.4854121210000031	-6.7537469453208e-25
-0.4853510858437531	-7.582041583705366e-25
-0.4852900506875031	-8.389494840145916e-25
-0.4852290155312531	-9.173735034804076e-25
-0.4851679803750031	-9.932458658924578e-25
-0.4851069452187531	-1.0663436132261168e-24
-0.4850459100625031	-1.1364513125921743e-24
-0.4849848749062531	-1.203362410123932e-24
-0.4849238397500031	-1.2668794274415876e-24
-0.4848628045937531	-1.3268144193199838e-24
-0.4848017694375031	-1.3829899792512036e-24
-0.4847407342812531	-1.4352393124882542e-24
-0.4846796991250031	-1.4834069597595511e-24
-0.4846186639687531	-1.5273492872191592e-24
-0.4845576288125031	-1.5669346809385427e-24
-0.4844965936562531	-1.602044236927451e-24
-0.4844355585000031	-1.6325718373539223e-24
-0.4843745233437531	-1.6584247191170965e-24
-0.4843134881875031	-1.679523510903449e-24
-0.4842524530312531	-1.6958026320316346e-24
-0.4841914178750031	-1.7072105144931355e-24
-0.4841303827187531	-1.7137095503783216e-24
-0.4840693475625031	-1.715276491181606e-24
-0.4840083124062531	-1.7119023151080375e-24
-0.4839472772500031	-1.7035923346276708e-24
-0.4838862420937531	-1.690366221840066e-24
-0.4838252069375031	-1.672257896305923e-24
-0.4837641717812531	-1.6493154862123167e-24
-0.4837031366250031	-1.6216011595600174e-24
-0.4836421014687531	-1.5891909914429465e-24
-0.4835810663125031	-1.5521747227132809e-24
-0.4835200311562531	-1.5106554974270985e-24
-0.4834589960000031	-1.4647496254820744e-24
-0.4833979608437531	-1.4145861854793562e-24
-0.4833369256875031	-1.3603066996866949e-24
-0.4832758905312531	-1.3020647291867365e-24
-0.4832148553750031	-1.2400254434506336e-24
-0.4831538202187531	-1.1743650221828927e-24
-0.4830927850625031	-1.105270450055489e-24
-0.4830317499062531	-1.0329386033948419e-24
-0.4829707147500031	-9.575759209246598e-25
-0.4829096795937531	-8.793979385088612e-25
-0.4828486444375031	-7.986281013683414e-25
-0.4827876092812531	-7.154978680852123e-25
-0.4827265741250031	-6.302455783052402e-25
-0.4826655389687531	-5.431157057222369e-25
-0.4826045038125031	-4.543584898976707e-25
-0.4825434686562531	-3.642290874147646e-25
-0.4824824335000031	-2.729864824507764e-25
-0.4824213983437531	-1.8089327902528103e-25
-0.4823603631875031	-8.821478993348069e-26
-0.4822993280312531	4.782264270371127e-27
-0.4822382928750031	9.782961225343925e-26
-0.4821772577187531	1.9065890627441733e-25
-0.4821162225625031	2.8300240288234353e-25
-0.4820551874062531	3.7459344960776803e-25
-0.4819941522500031	4.651674690497828e-25
-0.4819331170937531	5.544627585287689e-25
-0.4818720819375031	6.422212423268391e-25
-0.4818110467812531	7.281889603432252e-25
-0.4817500116250031	8.1211729324322555e-25
-0.4816889764687531	8.937633848644501e-25
-0.4816279413125031	9.728904935471501e-25
-0.4815669061562531	1.0492696878753254e-24
-0.4815058710000031	1.1226796342584226e-24
-0.4814448358437531	1.1929071436776952e-24
-0.4813838006875031	1.2597489794395448e-24
-0.4813227655312531	1.3230109086297927e-24
-0.4812617303750031	1.382509294065169e-24
-0.4812006952187531	1.4380715923314057e-24
-0.4811396600625031	1.4895360397668132e-24
-0.4810786249062531	1.536753351738113e-24
-0.4810175897500031	1.5795860492055957e-24
-0.4809565545937531	1.6179094945467635e-24
-0.4808955194375031	1.6516122614820887e-24
-0.4808344842812531	1.680595967636853e-24
-0.4807734491250031	1.7047762402088024e-24
-0.4807124139687531	1.724082427522988e-24
-0.4806513788125031	1.7384580928002215e-24
-0.4805903436562531	1.7478611315386997e-24
-0.4805293085000031	1.7522638040601694e-24
-0.4804682733437531	1.751652996525012e-24
-0.4804072381875031	1.7460301030860907e-24
-0.4803462030312531	1.7354111128756064e-24
-0.4802851678750031	1.7198265664500752e-24
-0.4802241327187531	1.6993214441838426e-24
-0.4801630975625031	1.6739550559768998e-24
-0.4801020624062531	1.6438008866595618e-24
-0.4800410272500031	1.6089463781470152e-24
-0.4799799920937531	1.569492656860629e-24
-0.4799189569375031	1.5255542810287927e-24
-0.4798579217812531	1.4772589385308883e-24
-0.4797968866250031	1.4247469519978927e-24
-0.4797358514687531	1.368171030575665e-24
-0.4796748163125031	1.3076957981468685e-24
-0.4796137811562531	1.2434970987630355e-24
-0.4795527460000031	1.1757619125436181e-24
-0.4794917108437531	1.1046874731425355e-24
-0.4794306756875031	1.0304806090586588e-24
-0.4793696405312531	9.533576923787807e-25
-0.4793086053750031	8.735434205850887e-25
-0.4792475702187531	7.912702964837514e-25
-0.4791865350625031	7.067782498219199e-25
-0.4791254999062531	6.2031377313651435e-25
-0.4790644647500031	5.321288450550051e-25
-0.4790034295937531	4.424808268001774e-25
-0.4789423944375031	3.5163141096311394e-25
-0.4788813592812531	2.5984544513976076e-25
-0.4788203241250031	1.6739111999366462e-25
-0.4787592889687531	7.453826251692245e-26
-0.4786982538125031	-1.8442070740089436e-26
-0.4786372186562531	-1.1127821685049517e-25
-0.4785761835000031	-2.0369899405402541e-25
-0.4785151483437531	-2.9543452494545744e-25
-0.4784541131875031	-3.862166078440799e-25
-0.4783930780312531	-4.757800014077934e-25
-0.4783320428750031	-5.638629899390633e-25
-0.4782710077187531	-6.502078775545913e-25
-0.4782099725625031	-7.345626164094703e-25
-0.4781489374062531	-8.166800605296158e-25
-0.4780879022500031	-8.963204443088838e-25
-0.4780268670937531	-9.73250852382657e-25
-0.4779658319375031	-1.0472458689718126e-24
-0.4779047967812531	-1.1180896653247261e-24
-0.4778437616250031	-1.1855745464014072e-24
-0.4777827264687531	-1.2495032432596743e-24
-0.4777216913125031	-1.3096888863482859e-24
-0.4776606561562531	-1.3659551806672922e-24
-0.4775996210000031	-1.4181377373378232e-24
-0.4775385858437531	-1.4660838516981666e-24
-0.4774775506875031	-1.5096533748621803e-24
-0.4774165155312531	-1.5487189120382023e-24
-0.4773554803750031	-1.5831662905170074e-24
-0.4772944452187531	-1.6128949703963838e-24
-0.4772334100625031	-1.6378181357859504e-24
-0.4771723749062531	-1.6578631927407517e-24
-0.4771113397500031	-1.6729718114022908e-24
-0.4770503045937531	-1.683100204684106e-24
-0.4769892694375031	-1.6882192340921116e-24
-0.4769282342812531	-1.6883144380909208e-24
-0.4768671991250031	-1.6833862381693877e-24
-0.4768061639687531	-1.6734497472619504e-24
-0.4767451288125031	-1.658534877911968e-24
-0.4766840936562531	-1.6386862197328217e-24
-0.4766230585000031	-1.6139628564127158e-24
-0.4765620233437531	-1.5844383078395337e-24
-0.4765009881875031	-1.5502002083516769e-24
-0.4764399530312531	-1.511350134023078e-24
-0.4763789178750031	-1.4680032646905921e-24
-0.4763178827187531	-1.4202880674612715e-24
-0.4762568475625031	-1.3683459641273624e-24
-0.4761958124062531	-1.3123308059686596e-24
-0.4761347772500031	-1.2524085474027794e-24
-0.4760737420937531	-1.1887567185916083e-24
-0.4760127069375031	-1.1215638808211039e-24
-0.4759516717812531	-1.051029105859455e-24
-0.4758906366250031	-9.773614005600978e-25
-0.4758296014687531	-9.007790619309668e-25
-0.4757685663125031	-8.215090818550071e-25
-0.4757075311562531	-7.397864500637343e-25
-0.4756464960000031	-6.558533770178695e-25
-0.4755854608437531	-5.699589495943079e-25
-0.4755244256875031	-4.823577685046346e-25
-0.4754633905312531	-3.93309817863458e-25
-0.4754023553750031	-3.030794493480726e-25
-0.4753413202187531	-2.119342913917123e-25
-0.4752802850625031	-1.2014527917479482e-25
-0.4752192499062531	-2.7984836198849945e-26
-0.4751582147500031	6.427305222566359e-26
-0.4750971795937531	1.5635421240732513e-25
-0.4750361444375031	2.4798485875430147e-25
-0.4749751092812531	3.3889220910995674e-25
-0.4749140741250031	4.288060684310118e-25
-0.4748530389687531	5.174583524296995e-25
-0.4747920038125031	6.045851223040502e-25
-0.4747309686562531	6.899268299613144e-25
-0.4746699335000031	7.73228616031452e-25
-0.4746088983437531	8.54242240882872e-25
-0.4745478631875031	9.32725661970913e-25
-0.4744868280312531	1.0084442011697333e-24
-0.4744257928750031	1.0811716765226928e-24
-0.4743647577187531	1.1506902046626946e-24
-0.4743037225625031	1.216791511853537e-24
-0.4742426874062531	1.2792774339555233e-24
-0.4741816522500031	1.3379602164004464e-24
-0.4741206170937531	1.3926633717728811e-24
-0.4740595819375031	1.4432221898442077e-24
-0.4739985467812531	1.489484038674199e-24
-0.4739375116250031	1.5313089551321003e-24
-0.4738764764687531	1.5685701625784222e-24
-0.4738154413125031	1.6011541421016418e-24
-0.4737544061562531	1.6289613817197904e-24
-0.4736933710000031	1.6519063333894063e-24
-0.4736323358437531	1.669917788719726e-24
-0.4735713006875031	1.6829392872199216e-24
-0.4735102655312531	1.6909289195322243e-24
-0.4734492303750031	1.6938597741660918e-24
-0.4733881952187531	1.6917199099605372e-24
-0.4733271600625031	1.6845123691110022e-24
-0.4732661249062531	1.6722552117331555e-24
-0.4732050897500031	1.654981510992111e-24
-0.4731440545937531	1.6327391725028825e-24
-0.4730830194375031	1.6055908713963354e-24
-0.4730219842812531	1.5736138933273848e-24
-0.4729609491250031	1.5368997727188973e-24
-0.4728999139687531	1.495554282628517e-24
-0.4728388788125031	1.4496968234427677e-24
-0.4727778436562531	1.3994603388820081e-24
-0.4727168085000031	1.3449908476458208e-24
-0.4726557733437531	1.286446818563814e-24
-0.4725947381875031	1.2239991853274986e-24
-0.4725337030312531	1.1578302625669795e-24
-0.4724726678750031	1.0881336102485181e-24
-0.4724116327187531	1.0151135107039345e-24
-0.4723505975625031	9.389838846485882e-25
-0.4722895624062531	8.599683186666804e-25
-0.4722285272500031	7.782989548145155e-25
-0.4721674920937531	6.942158271856023e-25
-0.4721064569375031	6.079665324784128e-25
-0.4720454217812531	5.198049740600119e-25
-0.4719843866250031	4.299910845607168e-25
-0.4719233514687531	3.3878969028436073e-25
-0.4718623163125031	2.46469938972617e-25
-0.4718012811562531	1.5330468211093365e-25
