Time	Frequency
-0.5000073912187517	-0.10114299267922885
-0.4999463560625017	-0.12010928074090588
-0.4998853209062517	-0.13873934097097168
-0.4998242857500017	-0.15697988700123927
-0.4997632505937517	-0.17477862074124859
-0.4997022154375017	-0.19208464635499314
-0.4996411802812517	-0.20884836742906068
-0.4995801451250017	-0.2250217262721784
-0.4995191099687517	-0.2405584662375537
-0.4994580748125017	-0.2554140089178393
-0.4993970396562517	-0.269545823137132
-0.4993360045000017	-0.28291344130258245
-0.4992749693437517	-0.29547853491912746
-0.4992139341875017	-0.307205143654515
-0.4991528990312517	-0.3180596769903588
-0.4990918638750017	-0.3280110773513705
-0.4990308287187517	-0.3370308672653131
-0.4989697935625017	-0.3450932603215229
-0.4989087584062517	-0.35217522916355765
-0.4988477232500017	-0.3582565661253749
-0.4987866880937517	-0.36331995962600183
-0.4987256529375017	-0.3673510203358165
-0.4986646177812517	-0.3703383534710835
-0.4986035826250017	-0.37227356815559537
-0.4985425474687517	-0.3731513170571922
-0.4984815123125017	-0.3729693045020756
-0.4984204771562517	-0.37172830748945945
-0.4983594420000017	-0.36943215656364825
-0.4982984068437517	-0.3660877368512825
-0.4982373716875017	-0.3617049744701918
-0.4981763365312517	-0.3562967914696222
-0.4981153013750017	-0.34987908913736715
-0.4980542662187517	-0.3424706850855932
-0.4979932310625017	-0.33409327927263144
-0.4979321959062517	-0.32477137094710384
-0.4978711607500017	-0.31453220123639103
-0.4978101255937517	-0.30340568633065246
-0.4977490904375017	-0.291424287023192
-0.4976880552812517	-0.27862298152481674
-0.4976270201250017	-0.2650391166632674
-0.4975659849687517	-0.25071229337773143
-0.4975049498125017	-0.2356843073791448
-0.4974439146562517	-0.2199989739923662
-0.4973828795000017	-0.2037020182757241
-0.4973218443437517	-0.18684094694419368
-0.4972608091875017	-0.16946493920578673
-0.4971997740312517	-0.15162462304043967
-0.4971387388750017	-0.1333720131521597
-0.4970777037187517	-0.11476035286958731
-0.4970166685625017	-0.0958438611811182
-0.4969556334062517	-0.07667771255268664
-0.4968945982500017	-0.057317818023436475
-0.4968335630937517	-0.03782059162863727
-0.4967725279375017	-0.01824289708104247
-0.4967114927812517	0.0013581140623755879
-0.4966504576250017	0.020925334314962324
-0.4965894224687517	0.04040164317962585
-0.4965283873125017	0.05973020707362554
-0.4964673521562517	0.07885467723092333
-0.4964063170000017	0.09771918158408247
-0.4963452818437517	0.11626870304778969
-0.4962842466875017	0.13444909849184494
-0.4962232115312517	0.15220725793014248
-0.4961621763750017	0.1694913631466837
-0.4961011412187517	0.1862509381614107
-0.4960401060625017	0.20243700162220649
-0.4959790709062517	0.2180023228291739
-0.4959180357500017	0.23290139841828614
-0.4958570005937517	0.24709068146147195
-0.4957959654375017	0.2605287567084589
-0.4957349302812517	0.27317629454321224
-0.4956738951250017	0.2849963426729616
-0.4956128599687517	0.2959543537972784
-0.4955518248125017	0.30601826954564754
-0.4954907896562517	0.3151586692818605
-0.4954297545000017	0.32334880097186824
-0.4953687193437517	0.3305647243851927
-0.4953076841875017	0.3367853161814946
-0.4952466490312517	0.34199236855306253
-0.4951856138750017	0.34617066067384944
-0.4951245787187517	0.34930794912444496
-0.4950635435625017	0.35139505972635954
-0.4950025084062517	0.3524258872544031
-0.4949414732500017	0.3523974212589011
-0.4948804380937517	0.35130975246501617
-0.4948194029375017	0.34916608275579425
-0.4947583677812517	0.34597271074939734
-0.4946973326250017	0.34173900894847353
-0.4946362974687517	0.3364774142509051
-0.4945752623125017	0.3302033766586595
-0.4945142271562517	0.322935323040406
-0.4944531920000017	0.3146946044029142
-0.4943921568437517	0.30550543348754966
-0.4943311216875017	0.29539481704554416
-0.4942700865312517	0.28439247097351283
-0.4942090513750017	0.2725307437326781
-0.4941480162187517	0.25984453196135643
-0.4940869810625017	0.2463711340698169
-0.4940259459062517	0.23215021104617126
-0.4939649107500017	0.2172236258818559
-0.4939038755937517	0.201635296698192
-0.4938428404375017	0.18543116898569834
-0.4937818052812517	0.16865897489745602
-0.4937207701250017	0.1513681140124706
-0.4936597349687517	0.13360960190331292
-0.4935986998125017	0.11543579555028388
-0.4935376646562517	0.09690029901733013
-0.4934766295000017	0.07805784569160905
-0.4934155943437517	0.0589640510993281
-0.4933545591875017	0.0396753320881758
-0.4932935240312517	0.020248681416334742
-0.4932324888750017	0.000741535274456329
-0.4931714537187517	-0.018788385203828008
-0.4931104185625017	-0.03828329286749113
-0.4930493834062517	-0.057685455907039676
-0.4929883482500017	-0.07693737661330295
-0.4929273130937517	-0.0959819766853629
-0.4928662779375017	-0.11476277457321549
-0.4928052427812517	-0.13322397996739194
-0.4927442076250017	-0.15131075573667804
-0.4926831724687517	-0.1689693297751833
-0.4926221373125017	-0.18614711894433497
-0.4925611021562517	-0.20279297441701477
-0.4925000670000017	-0.2188572409032481
-0.4924390318437517	-0.2342919547985142
-0.4923779966875017	-0.2490509789783534
-0.4923169615312517	-0.2630901282486996
-0.4922559263750017	-0.27636729925742537
-0.4921948912187517	-0.28884260506885595
-0.4921338560625017	-0.30047850469266174
-0.4920728209062517	-0.31123987236393946
-0.4920117857500017	-0.3210941463849889
-0.4919507505937517	-0.3300114075897815
-0.4918897154375017	-0.33796446871904684
-0.4918286802812517	-0.3449289493000836
-0.4917676451250017	-0.350883366479544
-0.4917066099687517	-0.35580919597143135
-0.4916455748125017	-0.35969089459793985
-0.4915845396562517	-0.36251600754134566
-0.4915235045000017	-0.3642751592763043
-0.4914624693437517	-0.3649620925178111
-0.4914014341875017	-0.36457370883181417
-0.4913403990312517	-0.3631100514642585
-0.4912793638750017	-0.36057432984449017
-0.4912183287187517	-0.3569729000275573
-0.4911572935625017	-0.3523152461870079
-0.4910962584062517	-0.34661396762088714
-0.4910352232500017	-0.339884733344538
-0.4909741880937517	-0.3321462263023484
-0.4909131529375017	-0.3234201339402937
-0.4908521177812517	-0.31373102447597717
-0.4907910826250017	-0.3031063296596965
-0.4907300474687517	-0.29157623809556354
-0.4906690123125017	-0.27917360847882045
-0.4906079771562517	-0.26593390472387435
-0.4905469420000017	-0.2518950330828782
-0.4904859068437517	-0.23709731608565737
-0.4904248716875017	-0.22158328715677225
-0.4903638365312517	-0.20539762498632655
-0.4903028013750017	-0.1885870263037536
-0.4902417662187517	-0.17120001800487103
-0.4901807310625017	-0.15328687958594342
-0.4901196959062517	-0.13489944914553548
-0.4900586607500017	-0.11609098768627885
-0.4899976255937517	-0.09691604749869258
-0.4899365904375017	-0.07743025485601725
-0.4898755552812517	-0.05769022640315773
-0.4898145201250017	-0.037753327596764696
-0.4897534849687517	-0.017677526889078088
-0.4896924498125017	0.0024786803390699982
-0.4896314146562517	0.022656664091279897
-0.4895703795000017	0.042797576276986944
-0.4895093443437517	0.06284266145528587
-0.4894483091875017	0.08273349724111384
-0.4893872740312517	0.10241194341431027
-0.4893262388750017	0.12182053722292675
-0.4892652037187517	0.14090257723500926
-0.4892041685625017	0.15960222393387316
-0.4891431334062517	0.17786475258173826
-0.4890820982500017	0.19563675083755183
-0.4890210630937517	0.212866096015163
-0.4889600279375017	0.22950230409008418
-0.4888989927812517	0.24549662519727602
-0.4888379576250017	0.26080206265417255
-0.4887769224687517	0.2753737247374816
-0.4887158873125017	0.28916875993759467
-0.4886548521562517	0.30214662556772126
-0.4885938170000017	0.31426913452288546
-0.4885327818437517	0.3255005585314787
-0.4884717466875017	0.33580783548717186
-0.4884107115312517	0.3451605013302854
-0.4883496763750017	0.35353094436825006
-0.4882886412187517	0.3608944121085567
-0.4882276060625017	0.3672290399435009
-0.4881665709062517	0.3725160416156669
-0.4881055357500017	0.37673964166801427
-0.4880445005937517	0.3798871797555748
-0.4879834654375017	0.38194918253372734
-0.4879224302812517	0.3829193060886864
-0.4878613951250017	0.38279443587316203
-0.4878003599687517	0.3815746620829592
-0.4877393248125017	0.37926327714044106
-0.4876782896562517	0.37586678475165164
-0.4876172545000017	0.3713948697777056
-0.4875562193437517	0.3658603803769141
-0.4874951841875017	0.35927927360895734
-0.4874341490312517	0.3516706039770658
-0.4873731138750017	0.34305642637073475
-0.4873120787187517	0.33346176806359856
-0.4872510435625017	0.32291454243990914
-0.4871900084062517	0.31144544543298036
-0.4871289732500017	0.29908793702031444
-0.4870679380937517	0.28587803381346877
-0.4870069029375017	0.2718543147424276
-0.4869458677812517	0.2570577633115367
-0.4868848326250017	0.24153157197099653
-0.4868237974687517	0.2253212037598232
-0.4867627623125017	0.2084740353059066
-0.4867017271562517	0.19103938476625162
-0.4866406920000017	0.17306833145446013
-0.4865796568437517	0.1546134546393746
-0.4865186216875017	0.1357288746247328
-0.4864575865312517	0.11646990263954103
-0.4863965513750017	0.09689302105912878
-0.4863355162187517	0.07705562323330564
-0.4862744810625017	0.05701590035064588
-0.4862134459062517	0.036832656459408385
-0.4861524107500017	0.016565080642210055
-0.4860913755937517	-0.003727285179085555
-0.4860303404375017	-0.02398492682374134
-0.4859693052812517	-0.04414834132131706
-0.4859082701250017	-0.06415830047848775
-0.4858472349687517	-0.08395608155090058
-0.4857861998125017	-0.10348349844371012
-0.4857251646562517	-0.12268319527039137
-0.4856641295000017	-0.1414987868330072
-0.4856030943437517	-0.15987496977082183
-0.4855420591875017	-0.17775775042436512
-0.4854810240312517	-0.19509462787701393
-0.4854199888750017	-0.21183461940921888
-0.4853589537187517	-0.22792854844474308
-0.4852979185625017	-0.243329181863473
-0.4852368834062517	-0.25799122015445275
-0.4851758482500017	-0.2718716370506431
-0.4851148130937517	-0.28492969589044453
-0.4850537779375017	-0.2971270246083292
-0.4849927427812517	-0.3084278685939783
-0.4849317076250017	-0.3187990881371003
-0.4848706724687517	-0.32821027802884223
-0.4848096373125017	-0.3366338894020497
-0.4847486021562517	-0.3440453009680788
-0.4846875670000017	-0.3504228656116623
-0.4846265318437517	-0.35574799869567375
-0.4845654966875017	-0.3600052573357183
-0.4845044615312517	-0.3631823302222094
-0.4844434263750017	-0.365270117377023
-0.4843823912187517	-0.36626276478076636
-0.4843213560625017	-0.3661576381631038
-0.4842603209062517	-0.36495537814115075
-0.4841992857500017	-0.36265988077450406
-0.4841382505937517	-0.35927827931133793
-0.4840772154375017	-0.35482093849870494
-0.4840161802812517	-0.3493014183588086
-0.4839551451250017	-0.34273644209591436
-0.4838941099687517	-0.33514582564582207
-0.4838330748125017	-0.3265524573710372
-0.4837720396562517	-0.31698219807001077
-0.4837110045000017	-0.30646381226239605
-0.4836499693437517	-0.2950289038669196
-0.4835889341875017	-0.28271180634560317
-0.4835278990312517	-0.2695494720003344
-0.4834668638750017	-0.2555813821864689
-0.4834058287187517	-0.24084943853289545
-0.4833447935625017	-0.2253978058947288
-0.4832837584062517	-0.2092728028788471
-0.4832227232500017	-0.19252278032076717
-0.4831616880937517	-0.17519796218384004
-0.4831006529375017	-0.15735025051458457
-0.4830396177812517	-0.13903318954871507
-0.4829785826250017	-0.1203017008432903
-0.4829175474687517	-0.10121191789387925
-0.4828565123125017	-0.08182114565325535
-0.4827954771562517	-0.06218751598765686
-0.4827344420000017	-0.04236994533394835
-0.4826734068437517	-0.02242792251654086
-0.4826123716875017	-0.0024212810860156134
-0.4825513365312517	0.017589875579849566
-0.4824903013750017	0.03754545634749745
-0.4824292662187517	0.05738550476196157
-0.4823682310625017	0.07705037853031048
-0.4823071959062517	0.09648094992610667
-0.4822461607500017	0.11561876964360712
-0.4821851255937517	0.13440624212918517
-0.4821240904375017	0.15278677586249442
-0.4820630552812517	0.17070503073109555
-0.4820020201250017	0.1881069543607929
-0.4819409849687517	0.20494005134422025
-0.4818799498125017	0.22115355534567668
-0.4818189146562517	0.23669840287311336
-0.4817578795000017	0.2515276510529564
-0.4816968443437517	0.2655963985378043
-0.4816358091875017	0.27886196646907985
-0.4815747740312517	0.2912841748366192
-0.4815137388750017	0.3028252228956699
-0.4814527037187517	0.31344999400360807
-0.4813916685625017	0.32312609787613783
-0.4813306334062517	0.3318239252532582
-0.4812695982500017	0.3395168123419882
-0.4812085630937517	0.34618108129722064
-0.4811475279375017	0.3517961076074952
-0.4810864927812517	0.35634440153804586
-0.4810254576250017	0.3598116628556279
-0.4809644224687517	0.36218679670926784
-0.4809033873125017	0.36346199123372225
-0.4808423521562517	0.3636327069090229
-0.4807813170000017	0.36269770655324807
-0.4807202818437517	0.36065906527043307
-0.4806592466875017	0.3575221546592968
-0.4805982115312517	0.3532956362622532
-0.4805371763750017	0.34799143877602906
-0.4804761412187517	0.34162471412517165
-0.4804151060625017	0.3342138069471945
-0.4803540709062517	0.32578019611482034
-0.4802930357500017	0.3163484220357313
-0.4802320005937517	0.30594604715261203
-0.4801709654375017	0.2946035214184797
-0.4801099302812517	0.2823541499667329
-0.4800488951250017	0.26923396954363055
-0.4799878599687517	0.25528161744823274
-0.4799268248125017	0.24053828295722676
-0.4798657896562517	0.22504751070470058
-0.4798047545000017	0.2088551258176837
-0.4797437193437517	0.1920090789892574
-0.4796826841875017	0.1745592895564709
-0.4796216490312517	0.1565575481465562
-0.4795606138750017	0.138057280227926
-0.4794995787187517	0.11911348310319712
-0.4794385435625017	0.0997824917926732
-0.4793775084062517	0.080121805294456
-0.4793164732500017	0.0601900254372588
-0.4792554380937517	0.04004652782745669
-0.4791944029375017	0.01975135865031747
-0.4791333677812517	-0.0006348640551455714
-0.4790723326250017	-0.021051310881784625
-0.4790112974687517	-0.041436963879703616
-0.4789502623125017	-0.061730851907019234
-0.4788892271562517	-0.08187231600006237
-0.4788281920000017	-0.10180097147686719
-0.4787671568437517	-0.1214571924917147
-0.4787061216875017	-0.14078203295022
-0.4786450865312517	-0.1597174713011367
-0.4785840513750017	-0.17820674466670303
-0.4785230162187517	-0.19619422109442242
-0.4784619810625017	-0.2136258635843101
-0.4784009459062517	-0.2304492047114172
-0.4783399107500017	-0.24661354671491234
-0.4782788755937517	-0.26207017617020695
-0.4782178404375017	-0.27677242777972966
-0.4781568052812517	-0.2906758714836898
-0.4780957701250017	-0.3037384204805489
-0.4780347349687517	-0.3159205223890924
-0.4779736998125017	-0.3271851614329891
-0.4779126646562517	-0.3374980921486013
-0.4778516295000017	-0.3468278761568002
-0.4777905943437517	-0.3551459760063655
-0.4777295591875017	-0.3624268915769698
-0.4776685240312517	-0.36864816946040907
-0.4776074888750017	-0.3737905402255428
-0.4775464537187517	-0.3778379227414035
-0.4774854185625017	-0.38077750413919514
-0.4774243834062517	-0.38259978213887724
-0.4773633482500017	-0.3832985721250742
-0.4773023130937517	-0.3828710494960361
-0.4772412779375017	-0.38131775170280374
-0.4771802427812517	-0.3786425777862627
-0.4771192076250017	-0.3748527812937761
-0.4770581724687517	-0.36995894637525434
-0.4769971373125017	-0.3639749662260442
-0.4769361021562517	-0.35691799346326203
-0.4768750670000017	-0.34880839414431675
-0.4768140318437517	-0.3396696972766722
-0.4767529966875017	-0.3295285089007234
-0.4766919615312517	-0.31841444888651943
-0.4766309263750017	-0.3063600645049433
-0.4765698912187517	-0.2934007132764351
-0.4765088560625017	-0.27957448749695485
-0.4764478209062517	-0.26492209763655566
-0.4763867857500017	-0.2494867013602104
-0.4763257505937517	-0.2333138758495136
-0.4762647154375017	-0.21645138698105332
-0.4762036802812517	-0.19894906250468977
-0.4761426451250017	-0.18085874582565695
-0.4760816099687517	-0.16223397000816403
-0.4760205748125017	-0.14312992912451644
-0.4759595396562517	-0.12360331652527201
-0.4758985045000017	-0.10371202066958159
-0.4758374693437517	-0.08351511934033114
-0.4757764341875017	-0.06307263860901059
-0.4757153990312517	-0.04244526853208196
-0.4756543638750017	-0.021694388776102063
-0.4755933287187517	-0.0008817240923918408
-0.4755322935625017	0.019930824950943813
-0.4754712584062517	0.04068125546379488
-0.4754102232500017	0.061307804248127894
-0.4753491880937517	0.08174899800412265
-0.4752881529375017	0.1019439353760544
-0.4752271177812517	0.12183239536769198
-0.4751660826250017	0.1413550822859527
-0.4751050474687517	0.16045377723501136
-0.4750440123125017	0.17907144960068833
-0.4749829771562517	0.19715259258948922
-0.4749219420000017	0.21464318857428827
-0.4748609068437517	0.23149103519279632
-0.4747998716875017	0.24764581950934755
-0.4747388365312517	0.2630592709421394
-0.4746778013750017	0.2776853679065764
-0.4746167662187517	0.29148037309730784
-0.4745557310625017	0.304403099266289
-0.4744946959062517	0.31641492232371576
-0.4744336607500017	0.32747990672883165
-0.4743726255937517	0.33756502475265776
-0.4743115904375017	0.34664013245512554
-0.4742505552812517	0.3546780789209998
-0.4741895201250017	0.36165488897631787
-0.4741284849687517	0.36754971942295805
-0.4740674498125017	0.372344966814286
-0.4740064146562517	0.37602634592958745
-0.4739453795000017	0.37858291239846553
-0.4738843443437517	0.38000707957998187
-0.4738233091875017	0.3802946675953932
-0.4737622740312517	0.3794449331661799
-0.4737012388750017	0.377460513589004
-0.4736402037187517	0.37434748540292556
-0.4735791685625017	0.3701153147437224
-0.4735181334062517	0.3647768225574426
-0.4734570982500017	0.3583481827177425
-0.4733960630937517	0.35084882808134904
-0.4733350279375017	0.3423014398355438
-0.4732739927812517	0.3327318470457472
-0.4732129576250017	0.3221689525640264
-0.4731519224687517	0.31064468965168085
-0.4730908873125017	0.2981938531600714
-0.4730298521562517	0.2848540624164102
-0.4729688170000017	0.2706656268896197
-0.4729077818437517	0.25567139261959215
-0.4728467466875017	0.23991668235484329
-0.4727857115312517	0.2234491030872868
-0.4727246763750017	0.2063184027325518
-0.4726636412187517	0.18857638643885546
-0.4726026060625017	0.1702766766543969
-0.4725415709062517	0.1514745871294441
-0.4724805357500017	0.1322270180714613
-0.4724195005937517	0.11259214013434304
-0.4723584654375017	0.09262937817747452
-0.4722974302812517	0.07239914149924088
-0.4722363951250017	0.05196261548362204
-0.4721753599687517	0.03138172265675539
-0.4721143248125017	0.010718719819205745
-0.4720532896562517	-0.00996378502912073
-0.4719922545000017	-0.030603138944536108
-0.4719312193437517	-0.05113682715096018
-0.4718701841875017	-0.07150259335191794
-0.4718091490312517	-0.0916387285187252
-0.4717481138750017	-0.11148411955168668
-0.4716870787187517	-0.130978630048084
-0.4716260435625017	-0.15006307515668274
-0.4715650084062517	-0.16867950663346112
-0.4715039732500017	-0.18677147189151516
-0.4714429380937517	-0.20428392980807974
-0.4713819029375017	-0.22116372459220662
-0.4713208677812517	-0.23735954495098682
-0.4712598326250017	-0.25282207738561807
-0.4711987974687517	-0.2675043593122139
-0.4711377623125017	-0.28136162251699515
-0.4710767271562517	-0.29435168429610636
-0.4710156920000017	-0.30643496933495684
-0.4709546568437517	-0.31757456759418473
-0.4708936216875017	-0.3277365200889197
-0.4708325865312517	-0.33688974322303544
-0.4707715513750017	-0.34500624598423474
-0.4707105162187517	-0.352061143617204
-0.4706494810625017	-0.3580327830669349
-0.4705884459062517	-0.3629028005378049
-0.4705274107500017	-0.3666561210102768
-0.4704663755937517	-0.3692811182796793
-0.4704053404375017	-0.37076953806927576
-0.4703443052812517	-0.3711165817341587
-0.4702832701250017	-0.37032094046459213
-0.4702222349687517	-0.3683847410389623
-0.4701611998125017	-0.36531359088587834
-0.4701001646562517	-0.3611165502237208
-0.4700391295000017	-0.35580608861077184
-0.4699780943437517	-0.3493980744493744
-0.4699170591875017	-0.3419117145133657
-0.4698560240312517	-0.3333694877691772
-0.4697949888750017	-0.3237971155937448
-0.4697339537187517	-0.31322342780917783
