Time	Frequency
-0.500038964500007	-0.3318536738840863
-0.49997792934375695	-0.3433547046220816
-0.49991689418750695	-0.35359531463777405
-0.49985585903125695	-0.36253866580946553
-0.49979482387500695	-0.37015261177980424
-0.49973378871875695	-0.3764097513197473
-0.49967275356250695	-0.3812875581436912
-0.49961171840625695	-0.38476847622043703
-0.49955068325000695	-0.38683995714704367
-0.49948964809375695	-0.3874945331704698
-0.49942861293750695	-0.3867298158606727
-0.49936757778125695	-0.3845485464661138
-0.49930654262500695	-0.3809585548315373
-0.49924550746875695	-0.37597273907814255
-0.49918447231250695	-0.36960904280113516
-0.49912343715625695	-0.36189036834621086
-0.49906240200000695	-0.35284450675996876
-0.49900136684375695	-0.34250403912357885
-0.49894033168750695	-0.33090622466865854
-0.49887929653125695	-0.3180928724285542
-0.49881826137500695	-0.30411015972915734
-0.49875722621875695	-0.28900853798241594
-0.49869619106250695	-0.2728424881289919
-0.49863515590625695	-0.25567031579465244
-0.49857412075000695	-0.23755405671067886
-0.49851308559375695	-0.21855911367446956
-0.49845205043750695	-0.19875408192384858
-0.49839101528125695	-0.17821055841635058
-0.49832998012500695	-0.15700279191823988
-0.49826894496875695	-0.13520746459036873
-0.49820790981250695	-0.11290344242974579
-0.49814687465625695	-0.09017142360002627
-0.49808583950000695	-0.06709370706327718
-0.49802480434375695	-0.04375390323210315
-0.49796376918750695	-0.020236554931462987
-0.49790273403125695	0.0033730560574344397
-0.49784169887500695	0.02698930439977755
-0.49778066371875695	0.05052649178190855
-0.49771962856250695	0.07389913257654239
-0.49765859340625695	0.09702234519583923
-0.49759755825000695	0.11981202784489788
-0.49753652309375695	0.14218529378162403
-0.49747548793750695	0.16406069411598168
-0.49741445278125695	0.18535849138819366
-0.49735341762500695	0.20600107869960066
-0.49729238246875695	0.22591305201375064
-0.49723134731250695	0.2450216632369558
-0.49717031215625695	0.2632570498159167
-0.49710927700000695	0.2805523543891224
-0.49704824184375695	0.2968441734269391
-0.49698720668750695	0.3120726389134632
-0.49692617153125695	0.3261816474659907
-0.49686513637500695	0.3391191735234451
-0.49680410121875695	0.35083733122091304
-0.49674306606250695	0.3612925928842421
-0.49668203090625695	0.370446007447008
-0.49662099575000695	0.37826324797792943
-0.49655996059375695	0.38471479986480833
-0.49649892543750695	0.38977606276971266
-0.49643789028125695	0.3934274133589427
-0.49637685512500695	0.3956543182998653
-0.49631581996875695	0.3964473574753134
-0.49625478481250695	0.3958022816698899
-0.49619374965625695	0.3937200183971564
-0.49613271450000695	0.39020668294817606
-0.49607167934375695	0.3852735471625936
-0.49601064418750695	0.3789370131660076
-0.49594960903125695	0.3712185538065661
-0.49588857387500695	0.36214463179477346
-0.49582753871875695	0.3517466226717498
-0.49576650356250695	0.3400606843478652
-0.49570546840625695	0.3271276544402647
-0.49564443325000695	0.3129928822308222
-0.49558339809375695	0.29770608177662156
-0.49552236293750695	0.2813211583563423
-0.49546132778125695	0.2638960085256283
-0.49540029262500695	0.24549230489770274
-0.49533925746875695	0.22617530596450655
-0.49527822231250695	0.20601361803408746
-0.49521718715625695	0.18507887624837915
-0.49515615200000695	0.16344561757461637
-0.49509511684375695	0.1411909523540316
-0.49503408168750695	0.11839418627999555
-0.49497304653125695	0.09513674213586891
-0.49491201137500695	0.0715017283983132
-0.49485097621875695	0.04757359362627188
-0.49478994106250695	0.02343803328510165
-0.49472890590625695	-0.0008185670723089522
-0.49466787075000695	-0.025109286890496376
-0.49460683559375695	-0.04934697430542683
-0.49454580043750695	-0.07344471047307953
-0.49448476528125695	-0.09731593338635651
-0.49442373012500695	-0.12087487465136239
-0.49436269496875695	-0.14403683288644784
-0.49430165981250695	-0.16671849474501546
-0.49424062465625695	-0.18883817561609176
-0.49417958950000695	-0.210316188153905
-0.49411855434375695	-0.2310751267563022
-0.49405751918750695	-0.2510400730694873
-0.49399648403125695	-0.27013895952416844
-0.49393544887500695	-0.28830275883218837
-0.49387441371875695	-0.3054657923401491
-0.49381337856250695	-0.3215659171762349
-0.49375234340625695	-0.33654479397352155
-0.49369130825000695	-0.35034807610675733
-0.49363027309375695	-0.36292560490749876
-0.49356923793750695	-0.374231621750338
-0.49350820278125695	-0.38422488315438114
-0.49344716762500695	-0.3928688814112055
-0.49338613246875695	-0.40013191614835897
-0.49332509731250695	-0.40598723703108996
-0.49326406215625695	-0.41041316297899433
-0.49320302700000695	-0.4133931103739059
-0.49314199184375695	-0.41491571808284966
-0.49308095668750695	-0.414974849833466
-0.49301992153125695	-0.4135696095871642
-0.49295888637500695	-0.41070440728055047
-0.49289785121875695	-0.406388876697735
-0.49283681606250695	-0.4006378719420616
-0.49277578090625695	-0.39347144408721463
-0.49271474575000695	-0.3849147137888782
-0.49265371059375695	-0.3749978305806807
-0.49259267543750695	-0.36375585407704203
-0.49253164028125695	-0.35122860524646216
-0.49247060512500695	-0.3374605719950859
-0.49240956996875695	-0.32250070656987995
-0.49234853481250695	-0.3064022617165529
-0.49228749965625695	-0.2892226465574199
-0.49222646450000695	-0.27102312735269996
-0.49216542934375695	-0.25186868976870147
-0.49210439418750695	-0.23182782078388697
-0.49204335903125695	-0.21097211704556768
-0.49198232387500695	-0.1893762371409035
-0.49192128871875695	-0.16711748351027936
-0.49186025356250695	-0.14427552633374066
-0.49179921840625695	-0.12093227158349058
-0.49173818325000695	-0.09717131222863866
-0.49167714809375695	-0.07307787943414416
-0.49161611293750695	-0.04873839660074159
-0.49155507778125695	-0.02424011976318296
-0.49149404262500695	0.0003289802021294855
-0.49143300746875695	0.0248807378299269
-0.49137197231250695	0.04932703928239344
-0.49131093715625695	0.07358008618155007
-0.49124990200000695	0.09755276542355192
-0.49118886684375695	0.12115903093525726
-0.49112783168750695	0.14431406063908733
-0.49106679653125695	0.1669346509355632
-0.49100576137500695	0.18893962521080684
-0.49094472621875695	0.21024985494850162
-0.49088369106250695	0.2307888268603284
-0.49082265590625695	0.2504828231944019
-0.49076162075000695	0.2692610079587951
-0.49070058559375695	0.2870560664116105
-0.49063955043750695	0.3038040884640601
-0.49057851528125695	0.3194449370175968
-0.49051748012500695	0.33392260703245985
-0.49045644496875695	0.34718514527533784
-0.49039540981250695	0.35918508183391185
-0.49033437465625695	0.36987948484594485
-0.49027333950000695	0.3792301611876272
-0.49021230434375695	0.38720377954667223
-0.49015126918750695	0.39377196717505997
-0.49009023403125695	0.3989115029801807
-0.49002919887500695	0.4026042870733438
-0.48996816371875695	0.4048374956817683
-0.48990712856250695	0.40560359390698797
-0.48984609340625695	0.40490036276918395
-0.48978505825000695	0.40273093010931227
-0.48972402309375695	0.39910373035421504
-0.48966298793750695	0.3940325052236054
-0.48960195278125695	0.387536239115863
-0.48954091762500695	0.37963909679347874
-0.48947988246875695	0.3703703259505525
-0.48941884731250695	0.3597641851297592
-0.48935781215625695	0.3478597791902218
-0.48929677700000695	0.33470093280448
-0.48923574184375695	0.3203360697020146
-0.48917470668750695	0.3048179688504105
-0.48911367153125695	0.28820363540768773
-0.48905263637500695	0.27055406505344265
-0.48899160121875695	0.25193402187711345
-0.48893056606250695	0.232411818494083
-0.48886953090625695	0.2120590664416033
-0.48880849575000695	0.19095039781208892
-0.48874746059375695	0.1691632061808231
-0.48868642543750695	0.1467774021980381
-0.48862539028125695	0.12387503748181589
-0.48856435512500695	0.10054008802607382
-0.48850331996875695	0.07685811841684088
-0.48844228481250695	0.052915978362097826
-0.48838124965625695	0.02880144753777282
-0.48832021450000695	0.004602956750983452
-0.48825917934375695	-0.01959068415369852
-0.48819814418750695	-0.04369078037229134
-0.48813710903125695	-0.06760886824745757
-0.48807607387500695	-0.09125716068876319
-0.48801503871875695	-0.11454889091097746
-0.48795400356250695	-0.13739849296990028
-0.48789296840625695	-0.15972208376034364
-0.48783193325000695	-0.18143762417869455
-0.48777089809375695	-0.20246532822160923
-0.48770986293750695	-0.22272790007493973
-0.48764882778125695	-0.24215077639913118
-0.48758779262500695	-0.2606625480794484
-0.48752675746875695	-0.2781950314765194
-0.48746572231250695	-0.2946836590870786
-0.48740468715625695	-0.3100676664052174
-0.48734365200000695	-0.32429029218505506
-0.48728261684375695	-0.33729906630573875
-0.48722158168750695	-0.3490458886226704
-0.48716054653125695	-0.3594873150185163
-0.48709951137500695	-0.36858466136623685
-0.48703847621875695	-0.3763041420267934
-0.48697744106250695	-0.38261702822088167
-0.48691640590625695	-0.3874997376428312
-0.48685537075000695	-0.39093392585363773
-0.48679433559375695	-0.39290653432197786
-0.48673330043750695	-0.39340989252497477
-0.48667226528125695	-0.39244169768800247
-0.48661123012500695	-0.3900050373157736
-0.48655019496875695	-0.38610840982973743
-0.48648915981250695	-0.38076566039732435
-0.48642812465625695	-0.37399594510004214
-0.48636708950000695	-0.3658236708089434
-0.48630605434375695	-0.35627840970736074
-0.48624501918750695	-0.34539476238304523
-0.48618398403125695	-0.3332122885287788
-0.48612294887500695	-0.3197753194677176
-0.48606191371875695	-0.30513279490004364
-0.48600087856250695	-0.28933815768247434
-0.48593984340625695	-0.27244904012368215
-0.48587880825000695	-0.2545271607915287
-0.48581777309375695	-0.23563809220506138
-0.48575673793750695	-0.21585090146585237
-0.48569570278125695	-0.1952380780545683
-0.48563466762500695	-0.17387517542705336
-0.48557363246875695	-0.15184044978747374
-0.48551259731250695	-0.1292148001474171
-0.48545156215625695	-0.10608127658317869
-0.48539052700000695	-0.08252478202867168
-0.48532949184375695	-0.05863195998181408
-0.48526845668750695	-0.03449064311863381
-0.48520742153125695	-0.010189613744817205
-0.48514638637500695	0.014181607792836424
-0.48508535121875695	0.038533269820658696
-0.48502431606250695	0.06277563685472372
-0.48496328090625695	0.08681924686972592
-0.48490224575000695	0.11057539247213562
-0.48484121059375695	0.13395631371245612
-0.48478017543750695	0.15687557988181525
-0.48471914028125695	0.17924842253518167
-0.48465810512500695	0.20099197244250538
-0.48459706996875695	0.22202568248298477
-0.48453603481250695	0.24227148874922488
-0.48447499965625695	0.26165419861970407
-0.48441396450000695	0.2801017695237579
-0.48435292934375695	0.2975454538307531
-0.48429189418750695	0.3139202071042432
-0.48423085903125695	0.329164886518635
-0.48416982387500695	0.3432223437905553
-0.48410878871875695	0.35603984483273626
-0.48404775356250695	0.36756917057163524
-0.48398671840625695	0.3777666894239652
-0.48392568325000695	0.38659373283748666
-0.48386464809375695	0.3940165983780463
-0.48380361293750695	0.4000066744218708
-0.48374257778125695	0.4045406195820213
-0.48368154262500695	0.4076004124812723
-0.48362050746875695	0.40917341069113816
-0.48355947231250695	0.4092524085328155
-0.48349843715625695	0.4078356999853707
-0.48343740200000695	0.40492703041920836
-0.48337636684375695	0.4005356276189992
-0.48331533168750695	0.39467616914479225
-0.48325429653125695	0.38736870149474
-0.48319326137500695	0.3786386158097963
-0.48313222621875695	0.3685165134175068
-0.48307119106250695	0.35703812544354435
-0.48301015590625695	0.34424418760430786
-0.48294912075000695	0.33018025358948383
-0.48288808559375695	0.3148965899865201
-0.48282705043750695	0.29844795877643937
-0.48276601528125695	0.2808934047552981
-0.48270498012500695	0.26229609300420825
-0.48264394496875695	0.2427230382225967
-0.48258290981250695	0.22224485032123478
-0.48252187465625695	0.20093554713768436
-0.48246083950000695	0.1788721960353518
-0.48239980434375695	0.1561346824091546
-0.48233876918750695	0.1328054413996853
-0.48227773403125695	0.10896908036374324
-0.48221669887500695	0.08471215422246109
-0.48215566371875695	0.06012279029978065
-0.48209462856250695	0.03529040475732077
-0.48203359340625695	0.010305331667432666
-0.48197255825000695	-0.014741470782607737
-0.48191152309375695	-0.039758736336157396
-0.48185048793750695	-0.06465530709147234
-0.48178945278125695	-0.08934037740665217
-0.48172841762500695	-0.11372386972278575
-0.48166738246875695	-0.13771676168211172
-0.48160634731250695	-0.16123143536923187
-0.48154531215625695	-0.1841819389843027
-0.48148427700000695	-0.20648435281157437
-0.48142324184375695	-0.22805712526914043
-0.48136220668750695	-0.2488212632545475
-0.48130117153125695	-0.26870073699192265
-0.48124013637500695	-0.2876227497402322
-0.48117910121875695	-0.3055178971598158
-0.48111806606250695	-0.322320544043769
-0.48105703090625695	-0.33796908186692887
-0.48099599575000695	-0.35240597860068995
-0.48093496059375695	-0.36557820132718727
-0.48087392543750695	-0.3774373405603457
-0.48081289028125695	-0.3879396852774091
-0.48075185512500695	-0.39704656935096994
-0.48069081996875695	-0.40472437317897136
-0.48062978481250695	-0.41094471356005907
-0.48056874965625695	-0.41568454503254004
-0.48050771450000695	-0.41892621358137244
-0.48044667934375695	-0.4206575851549408
-0.48038564418750695	-0.42087202684582464
-0.48032460903125695	-0.4195684810452364
-0.48026357387500695	-0.4167514540121541
-0.48020253871875695	-0.4124309948225538
-0.48014150356250695	-0.4066226784001991
-0.48008046840625695	-0.39934754301859876
-0.48001943325000695	-0.3906320021371689
-0.47995839809375695	-0.3805077740897628
-0.47989736293750695	-0.36901176370530425
-0.47983632778125695	-0.35618588469599366
-0.47977529262500695	-0.34207698776875933
-0.47971425746875695	-0.3267366359383532
-0.47965322231250695	-0.31022088070260784
-0.47959218715625695	-0.292590187808607
-0.47953115200000695	-0.27390907504152345
-0.47947011684375695	-0.254245910860807
-0.47940908168750695	-0.2336727931944709
-0.47934804653125695	-0.21226505929899905
-0.47928701137500695	-0.19010119510317675
-0.47922597621875695	-0.16726250313224797
-0.47916494106250695	-0.1438326977191793
-0.47910390590625695	-0.11989780920451333
-0.47904287075000695	-0.09554562128057977
-0.47898183559375695	-0.07086551878815645
-0.47892080043750695	-0.045948179174694265
-0.47885976528125695	-0.02088502442697966
-0.47879873012500695	0.004231853950211201
-0.47873769496875695	0.029310170343014683
-0.47867665981250695	0.054257823332413205
-0.47861562465625695	0.07898311697336272
-0.47855458950000695	0.10339517359297505
-0.47849355434375695	0.1274042810436145
-0.47843251918750695	0.15092218204302552
-0.47837148403125695	0.17386239105062037
-0.47831044887500695	0.1961406049373461
-0.47824941371875695	0.2176748955656666
-0.47818837856250695	0.23838607252013946
-0.47812734340625695	0.2581980136926259
-0.47806630825000695	0.2770378573161362
-0.47800527309375695	0.2948363515218509
-0.47794423793750695	0.31152807555504025
-0.47788320278125695	0.3270516795568351
-0.47782216762500695	0.341350130588517
-0.47776113246875695	0.35437091565906664
-0.47770009731250695	0.3660662426443201
-0.47763906215625695	0.37639319817519856
-0.47757802700000695	0.3853139411470259
-0.47751699184375695	0.3927958341629774
-0.47745595668750695	0.3988115227515123
-0.47739492153125695	0.4033391200933068
-0.47733388637500695	0.4063622318275153
-0.47727285121875695	0.4078700057779832
-0.47721181606250695	0.4078572437705216
-0.47715078090625695	0.406324352241019
-0.47708974575000695	0.40327737438282096
-0.47702871059375695	0.39872797789842856
-0.47696767543750695	0.39269339048841456
-0.47690664028125695	0.3851963545464217
-0.47684560512500695	0.37626504499862007
-0.47678456996875695	0.36593295059773034
-0.47672353481250695	0.35423877461139647
-0.47666249965625695	0.3412262914350664
-0.47660146450000695	0.32694413750201917
-0.47654042934375695	0.31144572449207475
-0.47647939418750695	0.29478896466877386
-0.47641835903125695	0.27703606867664643
-0.47635732387500695	0.2582533740080762
-0.47629628871875695	0.23851101417996454
-0.47623525356250695	0.2178827477636932
-0.47617421840625695	0.19644559483159257
-0.47611318325000695	0.17427964393359396
-0.47605214809375695	0.15146770068728863
-0.47599111293750695	0.12809494875233576
-0.47593007778125695	0.10424879562039019
-0.47586904262500695	0.08001826574932368
-0.47580800746875695	0.05549395872481345
-0.47574697231250695	0.030767623121503967
-0.47568593715625695	0.005931599152242845
-0.47562490200000695	-0.018921121544135416
-0.47556386684375695	-0.043697565611740374
-0.47550283168750695	-0.0683050643946906
-0.47544179653125695	-0.09265141043139433
-0.47538076137500695	-0.11664546530460349
-0.47531972621875695	-0.14019734726870522
-0.47525869106250695	-0.16321871724409007
-0.47519765590625695	-0.18562327897375627
-0.47513662075000695	-0.20732698168121205
-0.47507558559375695	-0.22824829812990455
-0.47501455043750695	-0.2483086809136261
-0.47495351528125695	-0.2674326929492853
-0.47489248012500695	-0.28554837655828563
-0.47483144496875695	-0.3025875655631084
-0.47477040981250695	-0.3184859722578639
-0.47470937465625695	-0.33318362448399746
-0.47464833950000695	-0.3466250166199584
-0.47458730434375695	-0.35875921892202467
-0.47452626918750695	-0.3695402329713308
-0.47446523403125695	-0.37892708858768764
-0.47440419887500695	-0.3868839465932784
-0.47434316371875695	-0.39338034108233033
-0.47428212856250695	-0.39839123507749175
-0.47422109340625695	-0.4018970968552499
-0.47416005825000695	-0.4038840352262466
-0.47409902309375695	-0.4043438137469858
-0.47403798793750695	-0.40327388716352486
-0.47397695278125695	-0.4006774244772431
-0.47391591762500695	-0.39656330197815903
-0.47385488246875695	-0.39094606258530196
-0.47379384731250695	-0.3838458671896065
-0.47373281215625695	-0.375288430663173
-0.47367177700000695	-0.36530492431014727
-0.47361074184375695	-0.35393186163177487
-0.47354970668750695	-0.3412109532192462
-0.47348867153125695	-0.32718899250032657
-0.47342763637500695	-0.3119176422807585
-0.47336660121875695	-0.2954532440202183
-0.47330556606250695	-0.2778566652130592
-0.47324453090625695	-0.2591930265748699
-0.47318349575000695	-0.23953144002991217
-0.47312246059375695	-0.21894481519892767
-0.47306142543750695	-0.19750958368053032
-0.47300039028125695	-0.17530532741573657
-0.47293935512500695	-0.1524145946324081
-0.47287831996875695	-0.12892256524313483
-0.47281728481250695	-0.10491665756415954
-0.47275624965625695	-0.08048631836398146
-0.47269521450000695	-0.05572261104637793
-0.47263417934375695	-0.030717886480525165
-0.47257314418750695	-0.005565504059392639
-0.47251210903125695	0.01964062199831202
-0.47245107387500695	0.044806291967335536
-0.47239003871875695	0.06983737609945478
-0.47232900356250695	0.09464023062169724
-0.47226796840625695	0.11912197732386795
-0.47220693325000695	0.143190873182257
-0.47214589809375695	0.16675665259519729
-0.47208486293750695	0.1897309160839874
-0.47202382778125695	0.21202734493849731
-0.47196279262500695	0.23356213780864005
-0.47190175746875695	0.2542543005382341
-0.47184072231250695	0.27402584500248306
-0.47177968715625695	0.29280229579414285
-0.47171865200000695	0.31051273318532946
-0.47165761684375695	0.32709020819098794
-0.47159658168750695	0.3424720039235123
-0.47153554653125695	0.3565997242548479
-0.47147451137500695	0.3694197090794476
-0.47141347621875695	0.3808831089908816
-0.47135244106250695	0.39094609118485185
-0.47129140590625695	0.3995700340872221
-0.47123037075000695	0.40672167073803356
-0.47116933559375695	0.41237320032819846
-0.47110830043750695	0.4165023793154492
-0.47104726528125695	0.41909267211182527
-0.47098623012500695	0.42013324613585906
-0.47092519496875695	0.41961904331531136
-0.47086415981250695	0.4175508249517495
-0.47080312465625695	0.41393512970674196
-0.47074208950000695	0.4087842830520425
-0.47068105434375695	0.40211634801619733
-0.47062001918750695	0.39395505110782436
-0.47055898403125695	0.38432971141667494
-0.47049794887500695	0.3732751304777927
