Time	Frequency
-0.5000379737187473	0.01969416307586248
-0.49997693856249725	0.03881982843654503
-0.49991590340624725	0.05785587000230182
-0.49985486824999725	0.07674911948810506
-0.49979383309374725	0.09544672857308828
-0.49973279793749725	0.11389640436983153
-0.49967176278124725	0.13204652107638803
-0.49961072762499725	0.14984622744299228
-0.49954969246874725	0.16724568404929258
-0.49948865731249725	0.18419611126018792
-0.49942762215624725	0.20064995637560362
-0.49936658699999725	0.21656108201280283
-0.49930555184374725	0.2318847846699371
-0.49924451668749725	0.24657803939454595
-0.49918348153124725	0.26059955014665626
-0.49912244637499725	0.2739098539479958
-0.49906141121874725	0.2864715367038032
-0.49900037606249725	0.2982491814840094
-0.49893934090624725	0.3092096074735001
-0.49887830574999725	0.3193219121469097
-0.49881727059374725	0.3285575098181161
-0.49875623543749725	0.33689032127215807
-0.49869520028124725	0.3442967503808445
-0.49863416512499725	0.3507557908840058
-0.49857312996874725	0.3562491083549789
-0.49851209481249725	0.36076104649252183
-0.49845105965624725	0.36427870330001444
-0.49839002449999725	0.36679197099281546
-0.49832898934374725	0.3682935403137421
-0.49826795418749725	0.36877894733769667
-0.49820691903124725	0.368246580244582
-0.49814588387499725	0.3666976751981045
-0.49808484871874725	0.3641363293395234
-0.49802381356249725	0.3605694797365959
-0.49796277840624725	0.3560068895056662
-0.49790174324999725	0.3504611219005118
-0.49784070809374725	0.34394750356289777
-0.49777967293749725	0.3364840850815591
-0.49771863778124725	0.3280915938178092
-0.49765760262499725	0.3187933651063001
-0.49759656746874725	0.3086152950649301
-0.49753553231249725	0.29758575610579713
-0.49747449715624725	0.2857355151371756
-0.49741346199999725	0.27309767272036034
-0.49735242684374725	0.25970753064388424
-0.49729139168749725	0.24560252438890678
-0.49723035653124725	0.2308221263828695
-0.49716932137499725	0.21540767635094513
-0.49710828621874725	0.19940235848115856
-0.49704725106249725	0.18285099885676576
-0.49698621590624725	0.16579995110355256
-0.49692518074999725	0.14829707062561986
-0.49686414559374725	0.13039137337357287
-0.49680311043749725	0.11213311346578593
-0.49674207528124725	0.09357354102530743
-0.49668104012499725	0.07476468461571424
-0.49662000496874725	0.05575940746032119
-0.49655896981249725	0.03661103457539538
-0.49649793465624725	0.017373347619927298
-0.49643689949999725	-0.0018995920795364001
-0.49637586434374725	-0.02115365810869882
-0.49631482918749725	-0.0403347332897056
-0.49625379403124725	-0.05938891241229509
-0.49619275887499725	-0.07826262278687857
-0.49613172371874725	-0.09690281994789067
-0.49607068856249725	-0.11525707725225894
-0.49600965340624725	-0.13327378187986105
-0.49594861824999725	-0.1509022836215607
-0.49588758309374725	-0.1680929773828761
-0.49582654793749725	-0.1847975193742426
-0.49576551278124725	-0.20096892977095668
-0.49570447762499725	-0.21656171488874243
-0.49564344246874725	-0.23153201167957527
-0.49558240731249725	-0.24583772617343919
-0.49552137215624725	-0.25943861213964137
-0.49546033699999725	-0.2722964289069977
-0.49539930184374725	-0.2843750328914803
-0.49533826668749725	-0.2956404568551499
-0.49527723153124725	-0.30606106867698313
-0.49521619637499725	-0.3156075755736321
-0.49515516121874725	-0.3242531977239656
-0.49509412606249725	-0.3319736873447538
-0.49503309090624725	-0.3387473889850615
-0.49497205574999725	-0.34455537482971943
-0.49491102059374725	-0.34938140390363326
-0.49484998543749725	-0.3532120451520998
-0.49478895028124725	-0.35603667928377714
-0.49472791512499725	-0.3578475259922025
-0.49466687996874725	-0.3586397042112085
-0.49460584481249725	-0.35841119450024217
-0.49454480965624725	-0.3571628890961634
-0.49448377449999725	-0.3548985738310703
-0.49442273934374725	-0.35162491060787765
-0.49436170418749725	-0.34735143498543797
-0.49430066903124725	-0.34209052179958827
-0.49423963387499725	-0.33585735081056156
-0.49417859871874725	-0.32866986354561084
-0.49411756356249725	-0.3205487260998436
-0.49405652840624725	-0.3115172488414801
-0.49399549324999725	-0.30160134148526857
-0.49393445809374725	-0.29082943251704224
-0.49387342293749725	-0.2792323830483006
-0.49381238778124725	-0.2668434193252008
-0.49375135262499725	-0.25369801183569307
-0.49369031746874725	-0.23983379765195315
-0.49362928231249725	-0.22529047315448256
-0.49356824715624725	-0.21010966265677922
-0.49350721199999725	-0.19433481567631802
-0.49344617684374725	-0.1780110969129075
-0.49338514168749725	-0.16118522051585507
-0.49332410653124725	-0.14390536200919105
-0.49326307137499725	-0.1262209920457887
-0.49320203621874725	-0.10818273445182483
-0.49314100106249725	-0.08984226177543508
-0.49307996590624725	-0.07125208341323971
-0.49301893074999725	-0.0524654658505236
-0.49295789559374725	-0.033536225223480445
-0.49289686043749725	-0.014518607027699445
-0.49283582528124725	0.004532863859359474
-0.49277479012499725	0.0235635887365353
-0.49271375496874725	0.04251897055554991
-0.49265271981249725	0.06134463507356105
-0.49259168465624725	0.07998658139893151
-0.49253064949999725	0.09839126345976125
-0.49246961434374725	0.1165058543585503
-0.49240857918749725	0.13427832750491978
-0.49234754403124725	0.15165756984991532
-0.49228650887499725	0.16859365444282678
-0.49222547371874725	0.18503783871412482
-0.49216443856249725	0.20094279848942892
-0.49210340340624725	0.21626274669532022
-0.49204236824999725	0.23095352007056155
-0.49198133309374725	0.24497277807886617
-0.49192029793749725	0.258280041536378
-0.49185926278124725	0.27083689724580456
-0.49179822762499725	0.28260703676573873
-0.49173719246874725	0.29355638380179594
-0.49167615731249725	0.3036532325836871
-0.49161512215624725	0.3128682527551659
-0.49155408699999725	0.3211746712126487
-0.49149305184374725	0.32854828410815845
-0.49143201668749725	0.3349675341452596
-0.49137098153124725	0.34041361991348973
-0.49130994637499725	0.34487048677123494
-0.49124891121874725	0.34832491775280927
-0.49118787606249725	0.35076656157113445
-0.49112684090624725	0.35218795910856093
-0.49106580574999725	0.35258456549708184
-0.49100477059374725	0.35195477331664127
-0.49094373543749725	0.35029991262051224
-0.49088270028124725	0.3476242459765162
-0.49082166512499725	0.3439349661564202
-0.49076062996874725	0.33924216946455665
-0.49069959481249725	0.33355883183335294
-0.49063855965624725	0.32690077284506586
-0.49057752449999725	0.319286616054441
-0.49051648934374725	0.31073772107987707
-0.49045545418749725	0.301278157506906
-0.49039441903124725	0.29093459283812795
-0.49033338387499725	0.2797362521827884
-0.49027234871874725	0.26771484372592663
-0.49021131356249725	0.2549043986747071
-0.49015027840624725	0.24134129406020824
-0.49008924324999725	0.2270640380113895
-0.49002820809374725	0.21211320835652456
-0.48996717293749725	0.19653136999779522
-0.48990613778124725	0.18036287217901023
-0.48984510262499725	0.1636538195564354
-0.48978406746874725	0.1464518487199166
-0.48972303231249725	0.12880606452068172
-0.48966199715624725	0.11076687076343701
-0.48960096199999725	0.09238580905464715
-0.48953992684374725	0.07371545568382835
-0.48947889168749725	0.054809234334787536
-0.48941785653124725	0.035721275066760455
-0.48935682137499725	0.016506271488892926
-0.48929578621874725	-0.0027806805085601643
-0.48923475106249725	-0.022084276614353433
-0.48917371590624725	-0.04134907619054018
-0.48911268074999725	-0.06051976901479346
-0.48905164559374725	-0.0795412498866568
-0.48899061043749725	-0.09835879179289743
-0.48892957528124725	-0.11691827420700136
-0.48886854012499725	-0.13516619701303045
-0.48880750496874725	-0.15304999662481306
-0.48874646981249725	-0.1705180758653258
-0.48868543465624725	-0.18751998951931506
-0.48862439949999725	-0.20400663086492068
-0.48856336434374725	-0.21993029160968597
-0.48850232918749725	-0.23524488462557966
-0.48844129403124725	-0.24990600224378456
-0.48838025887499725	-0.2638711062218171
-0.48831922371874725	-0.2770996057880062
-0.48825818856249725	-0.2895529925913211
-0.48819715340624725	-0.3011949738724058
-0.48813611824999725	-0.3119915162201516
-0.48807508309374725	-0.32191102144902417
-0.48801404793749725	-0.3309243652654315
-0.48795301278124725	-0.33900498455400213
-0.48789197762499725	-0.3461290048070537
-0.48783094246874725	-0.35227523148477163
-0.48776990731249725	-0.35742528144543206
-0.48770887215624725	-0.36156361202654735
-0.48764783699999725	-0.36467753528321
-0.48758680184374725	-0.3667573319359137
-0.48752576668749725	-0.3677961984735439
-0.48746473153124725	-0.36779031641971427
-0.48740369637499725	-0.36673886824873997
-0.48734266121874725	-0.3646440043407018
-0.48728162606249725	-0.36151087864631937
-0.48722059090624725	-0.3573476132716675
-0.48715955574999725	-0.35216528271252007
-0.48709852059374725	-0.3459778811629004
-0.48703748543749725	-0.33880229496086706
-0.48697645028124725	-0.3306582381873141
-0.48691541512499725	-0.3215682137230866
-0.48685437996874725	-0.3115574461303833
-0.48679334481249725	-0.3006537978717378
-0.48673230965624725	-0.28888772190174344
-0.48667127449999725	-0.2762921312215156
-0.48661023934374725	-0.2629023591045544
-0.48654920418749725	-0.2487560116648772
-0.48648816903124725	-0.23389287922644938
-0.48642713387499725	-0.21835485585425551
-0.48636609871874725	-0.20218574042654822
-0.48630506356249725	-0.18543121367104273
-0.48624402840624725	-0.16813861829689417
-0.48618299324999725	-0.15035688366770272
-0.48612195809374725	-0.1321363630805925
-0.48606092293749725	-0.11352867427138838
-0.48599988778124725	-0.09458661196902189
-0.48593885262499725	-0.0753638979265877
-0.48587781746874725	-0.05591515012808244
-0.48581678231249725	-0.036295597424957735
-0.48575574715624725	-0.016561040751266708
-0.48569471199999725	0.0032323848374254715
-0.48563367684374725	0.02302837421014462
-0.48557264168749725	0.0427705148276158
-0.48551160653124725	0.062402611658175386
-0.48545057137499725	0.08186866492641126
-0.48538953621874725	0.10111319707987426
-0.48532850106249725	0.120081306177165
-0.48526746590624725	0.13871884336172147
-0.48520643074999725	0.15697261631350018
-0.48514539559374725	0.17479046254050765
-0.48508436043749725	0.19212149800821637
-0.48502332528124725	0.20891614295276306
-0.48496229012499725	0.22512640320264204
-0.48490125496874725	0.24070589125148018
-0.48484021981249725	0.2556099924642614
-0.48477918465624725	0.2697960752553663
-0.48471814949999725	0.2832234766898181
-0.48465711434374725	0.29585371902589724
-0.48459607918749725	0.3076506085408735
-0.48453504403124725	0.3185802946001619
-0.48447400887499725	0.3286114127962723
-0.48441297371874725	0.3377151723354901
-0.48435193856249725	0.3458654050273416
-0.48429090340624725	0.35303868774824
-0.48422986824999725	0.3592143816217896
-0.48416883309374725	0.36437469233828046
-0.48410779793749725	0.36850475077439604
-0.48404676278124725	0.37159261300492413
-0.48398572762499725	0.37362933719276675
-0.48392469246874725	0.3746089945513335
-0.48386365731249725	0.37452866633462356
-0.48380262215624725	0.3733885020986622
-0.48374158699999725	0.3711916742709148
-0.48368055184374725	0.36794438992647344
-0.48361951668749725	0.3636558847754604
-0.48355848153124725	0.3583383704489144
-0.48349744637499725	0.3520070332779391
-0.48343641121874725	0.34467995594815026
-0.48337537606249725	0.3363781085210039
-0.48331434090624725	0.32712525179917623
-0.48325330574999725	0.31694787458769386
-0.48319227059374725	0.30587517359817307
-0.48313123543749725	0.2939388619355021
-0.48307020028124725	0.2811731977721705
-0.48300916512499725	0.2676148178082702
-0.48294812996874725	0.2533026061589168
-0.48288709481249725	0.2382777032628183
-0.48282605965624725	0.22258323339922162
-0.48276502449999725	0.20626429730827797
-0.48270398934374725	0.18936780226587863
-0.48264295418749725	0.1719423027452385
-0.48258191903124725	0.1540379207561784
-0.48252088387499725	0.13570613473874552
-0.48245984871874725	0.11699969329135775
-0.48239881356249725	0.0979724159006136
-0.48233777840624725	0.07867906095079977
-0.48227674324999725	0.059175171297071526
-0.48221570809374725	0.03951690489094897
-0.48215467293749725	0.01976086168423471
-0.48209363778124725	-3.6040165780356626e-05
-0.48203260262499725	-0.019816774492286623
-0.48197156746874725	-0.039524350313647365
-0.48191053231249725	-0.059101956079406964
-0.48184949715624725	-0.0784931847313312
-0.48178846199999725	-0.09764210386420397
-0.48172742684374725	-0.11649352487991804
-0.48166639168749725	-0.13499308044372763
-0.48160535653124725	-0.15308739130623117
-0.48154432137499725	-0.17072430145948125
-0.48148328621874725	-0.18785288680590592
-0.48142225106249725	-0.20442374768658075
-0.48136121590624725	-0.22038907863265372
-0.48130018074999725	-0.2357027615036745
-0.48123914559374725	-0.2503206427761998
-0.48117811043749725	-0.2642005065183377
-0.48111707528124725	-0.2773022814470476
-0.48105604012499725	-0.2895881697572248
-0.48099500496874725	-0.301022685221498
-0.48093396981249725	-0.31157282926972674
-0.48087293465624725	-0.32120815590540774
-0.48081189949999725	-0.32990085151278925
-0.48075086434374725	-0.3376258348776498
-0.48068982918749725	-0.34436083571358406
-0.48062879403124725	-0.3500864268456497
-0.48056775887499725	-0.35478612554637934
-0.48050672371874725	-0.358446407297131
-0.48044568856249725	-0.36105676010308485
-0.48038465340624725	-0.36260973091565113
-0.48032361824999725	-0.3631009097657087
-0.48026258309374725	-0.36252898740464484
-0.48020154793749725	-0.3608957310837773
-0.48014051278124725	-0.35820598854036273
-0.48007947762499725	-0.35446768462710243
-0.48001844246874725	-0.3496917823761382
-0.47995740731249725	-0.34389226593454
-0.47989637215624725	-0.337086101949093
-0.47983533699999725	-0.32929317245354484
-0.47977430184374725	-0.3205362493893525
-0.47971326668749725	-0.31084090248010643
-0.47965223153124725	-0.30023543393340657
-0.47959119637499725	-0.2887508139714248
-0.47953016121874725	-0.2764205577391701
-0.47946912606249725	-0.26328067257344456
-0.47940809090624725	-0.24936950778997494
-0.47934705574999725	-0.23472768998578386
-0.47928602059374725	-0.2193979631082462
-0.47922498543749725	-0.20342510376992973
-0.47916395028124725	-0.18685576072105284
-0.47910291512499725	-0.1697383314930248
-0.47904187996874725	-0.15212286344489542
-0.47898084481249725	-0.13406079041255847
-0.47891980965624725	-0.11560495453348144
-0.47885877449999725	-0.09680929606934228
-0.47879773934374725	-0.07772877773466098
-0.47873670418749725	-0.05841925453395503
-0.47867566903124725	-0.03893719228919777
-0.47861463387499725	-0.01933963418229606
-0.47855359871874725	0.0003160222001787447
-0.47849256356249725	0.01997222202579651
-0.47843152840624725	0.03957137247448843
-0.47837049324999725	0.059055986354535024
-0.47830945809374725	0.07836897856931656
-0.47824842293749725	0.09745365602683867
-0.47818738778124725	0.11625398729046274
-0.47812635262499725	0.13471482815867805
-0.47806531746874725	0.15278186851169656
-0.47800428231249725	0.17040203550989036
-0.47794324715624725	0.18752351405358839
-0.47788221199999725	0.20409586767699173
-0.47782117684374725	0.22007032463513398
-0.47776014168749725	0.23539977180650853
-0.47769910653124725	0.2500389932935651
-0.47763807137499725	0.2639447669892873
-0.47757703621874725	0.27707597138041007
-0.47751600106249725	0.2893937566526961
-0.47745496590624725	0.3008616105531128
-0.47739393074999725	0.31144549535648686
-0.47733289559374725	0.32111393807183913
-0.47727186043749725	0.32983812754039893
-0.47721082528124725	0.3375919875593571
-0.47714979012499725	0.3443522752901897
-0.47708875496874725	0.35009863591327384
-0.47702771981249725	0.3548136592358764
-0.47696668465624725	0.3584829570483332
-0.47690564949999725	0.3610951693179604
-0.47684461434374725	0.36264203039839155
-0.47678357918749725	0.3631183884083788
-0.47672254403124725	0.36252220259634843
-0.47666150887499725	0.36085457884242045
-0.47660047371874725	0.3581197486318244
-0.47653943856249725	0.35432506442639977
-0.47647840340624725	0.3494809843860753
-0.47641736824999725	0.34360103524363006
-0.47635633309374725	0.33670178247213933
-0.47629529793749725	0.32880277712544964
-0.47623426278124725	0.31992650624163776
-0.47617322762499725	0.31009832164301354
-0.47611219246874725	0.2993463783599602
-0.47605115731249725	0.2877015432311601
-0.47599012215624725	0.2751973079641804
-0.47592908699999725	0.26186971194074266
-0.47586805184374725	0.24775719446030228
-0.47580701668749725	0.2329005347693155
-0.47574598153124725	0.2173427159393644
-0.47568494637499725	0.20112875514398543
-0.47562391121874725	0.18430567749186472
-0.47556287606249725	0.16692226162337562
-0.47550184090624725	0.1490289744515665
-0.47544080574999725	0.1306778241705885
-0.47537977059374725	0.11192213566717467
-0.47531873543749725	0.09281651905214838
-0.47525770028124725	0.07341657290574
-0.47519666512499725	0.05377883815456195
-0.47513562996874725	0.03396056315108914
-0.47507459481249725	0.014019555273215351
-0.47501355965624725	-0.005985950058714975
-0.47495252449999725	-0.025997555740246925
-0.47489148934374725	-0.0459567370931906
-0.47483045418749725	-0.0658051339816892
-0.47476941903124725	-0.08548467653990768
-0.47470838387499725	-0.10493771478841332
-0.47464734871874725	-0.1241072560008679
-0.47458631356249725	-0.1429371029593527
-0.47452527840624725	-0.16137198762219418
-0.47446424324999725	-0.1793577885075586
-0.47440320809374725	-0.19684166193015964
-0.47434217293749725	-0.21377216202759958
-0.47428113778124725	-0.2300994910863519
-0.47422010262499725	-0.24577552753676396
-0.47415906746874725	-0.26075403306080897
-0.47409803231249725	-0.27499082695009947
-0.47403699715624725	-0.2884437888003407
-0.47397596199999725	-0.30107312179249496
-0.47391492684374725	-0.3128414099855902
-0.47385389168749725	-0.3237136838579393
-0.47379285653124725	-0.3336576205284688
-0.47373182137499725	-0.34264357085378877
-0.47367078621874725	-0.35064465395831496
-0.47360975106249725	-0.3576368718050375
-0.47354871590624725	-0.3635991495944074
-0.47348768074999725	-0.3685134035221989
-0.47342664559374725	-0.3723646123487136
-0.47336561043749725	-0.37514084517695384
-0.47330457528124725	-0.3768333020253503
-0.47324354012499725	-0.37743635197357456
-0.47318250496874725	-0.37694753790558466
-0.47312146981249725	-0.3753675903183288
-0.47306043465624725	-0.3727004331820195
-0.47299939949999725	-0.3689531653932221
-0.47293836434374725	-0.36413604374595876
-0.47287732918749725	-0.3582624621897168
-0.47281629403124725	-0.3513489037150409
-0.47275525887499725	-0.34341489812625564
-0.47269422371874725	-0.33448297720791476
-0.47263318856249725	-0.3245785859926517
-0.47257215340624725	-0.3137300332945689
-0.47251111824999725	-0.30196840506764255
-0.47245008309374725	-0.28932746193623604
-0.47238904793749725	-0.27584355997403676
-0.47232801278124725	-0.26155553257382524
-0.47226697762499725	-0.24650458657696864
-0.47220594246874725	-0.23073417645302016
-0.47214490731249725	-0.21428987479772132
-0.47208387215624725	-0.19721927173097809
-0.47202283699999725	-0.1795717731885643
-0.47196180184374725	-0.16139852247981765
-0.47190076668749725	-0.1427522339063645
-0.47183973153124725	-0.1236869712591177
-0.47177869637499725	-0.10425813949401716
-0.47171766121874725	-0.08452214544690478
-0.47165662606249725	-0.06453636893508276
-0.47159559090624725	-0.04435895154166988
-0.47153455574999725	-0.02404855517026798
-0.47147352059374725	-0.0036643666804863197
-0.47141248543749725	0.016734299808813077
-0.47135145028124725	0.037087983390905924
-0.47129041512499725	0.05733735851681543
-0.47122937996874725	0.07742340403078862
-0.47116834481249725	0.09728748068319473
-0.47110730965624725	0.11687167813405276
-0.47104627449999725	0.13611878454005774
-0.47098523934374725	0.15497259839326652
-0.47092420418749725	0.17337807731715021
-0.47086316903124725	0.19128139383429715
-0.47080213387499725	0.20863023518422572
-0.47074109871874725	0.2253738762716
-0.47068006356249725	0.24146332470373166
-0.47061902840624725	0.25685151507588705
-0.47055799324999725	0.2714934092795713
-0.47049695809374725	0.2853461267376459
