Time	Frequency
-0.5000265492499949	1.7416788418660235e-25
-0.4999655140937449	2.5508889075534483e-25
-0.4999044789374949	3.350902817148486e-25
-0.4998434437812449	4.138957312984376e-25
-0.4997824086249949	4.912328606632958e-25
-0.4997213734687449	5.668342804639757e-25
-0.4996603383124949	6.404387242821777e-25
-0.4995993031562449	7.117917775968746e-25
-0.4995382679999949	7.806467636619187e-25
-0.4994772328437449	8.467657626974078e-25
-0.4994161976874949	9.0992024166537e-25
-0.4993551625312449	9.698919904269335e-25
-0.4992941273749949	1.0264739439050749e-24
-0.4992330922187449	1.079470597914675e-24
-0.4991720570624949	1.1286991261788948e-24
-0.4991110219062449	1.173989754173076e-24
-0.4990499867499949	1.2151862602731519e-24
-0.4989889515937449	1.2521469247311422e-24
-0.4989279164374949	1.2847446015680703e-24
-0.4988668812812449	1.312867358184073e-24
-0.4988058461249949	1.3364189990334921e-24
-0.4987448109687449	1.355319074323987e-24
-0.4986837758124949	1.3695034849986393e-24
-0.4986227406562449	1.3789246009028756e-24
-0.4985617054999949	1.3835512939233305e-24
-0.4985006703437449	1.3833693147202498e-24
-0.4984396351874949	1.3783811439993956e-24
-0.4983786000312449	1.3686060318824152e-24
-0.4983175648749949	1.3540800233004502e-24
-0.4982565297187449	1.3348557314398001e-24
-0.4981954945624949	1.3110022034770556e-24
-0.4981344594062449	1.2826046843133065e-24
-0.4980734242499949	1.2497643533176738e-24
-0.4980123890937449	1.2125978828362277e-24
-0.4979513539374949	1.171237145707371e-24
-0.4978903187812449	1.125828687854138e-24
-0.4978292836249949	1.0765332413151353e-24
-0.4977682484687449	1.0235251869187698e-24
-0.4977072133124949	9.669918451248834e-25
-0.4976461781562449	9.071330349313011e-25
-0.4975851429999949	8.441601374761942e-25
-0.4975241078437449	7.782954936009676e-25
-0.4974630726874949	7.097716644894426e-25
-0.4974020375312449	6.388305042598067e-25
-0.4973410023749949	5.657223220234415e-25
-0.4972799672187449	4.907051200385919e-25
-0.4972189320624949	4.140437285710416e-25
-0.4971578969062449	3.360085113562001e-25
-0.4970968617499949	2.568748847860542e-25
-0.4970358265937449	1.7692217119296187e-25
-0.4969747914374949	9.643242901671803e-26
-0.4969137562812449	1.5689798514529678e-26
-0.4968527211249949	-6.502074254625337e-26
-0.4967916859687449	-1.4541427328896503e-25
-0.4967306508124949	-2.252069062357283e-25
-0.4966696156562449	-3.0411699227098552e-25
-0.4966085804999949	-3.818656788722978e-25
-0.4965475453437449	-4.581783655852062e-25
-0.4964865101874949	-5.327855961944851e-25
-0.4964254750312449	-6.054233732274223e-25
-0.4963644398749949	-6.758351382361494e-25
-0.4963034047187449	-7.437719650154863e-25
-0.4962423695624949	-8.0899331874757405e-25
-0.4961813344062449	-8.712685802272608e-25
-0.4961202992499949	-9.3037732104715e-25
-0.4960592640937449	-9.861101981777053e-25
-0.4959982289374949	-1.0382696742032587e-24
-0.4959371937812449	-1.0866709642796724e-24
-0.4958761586249949	-1.1311423962525176e-24
-0.4958151234687449	-1.1715259834229122e-24
-0.4957540883124949	-1.2076783979368358e-24
-0.4956930531562449	-1.2394710492448105e-24
-0.4956320179999949	-1.2667906617342147e-24
-0.4955709828437449	-1.2895398459403344e-24
-0.4955099476874949	-1.3076372720380863e-24
-0.4954489125312449	-1.321017990205471e-24
-0.4953878773749949	-1.3296337233355046e-24
-0.4953268422187449	-1.3334530138500894e-24
-0.4952658070624949	-1.332461330279648e-24
-0.4952047719062449	-1.3266611536608296e-24
-0.4951437367499949	-1.316071937190922e-24
-0.4950827015937449	-1.3007301039328543e-24
-0.4950216664374949	-1.2806888663648741e-24
-0.4949606312812449	-1.2560180716513175e-24
-0.4948995961249949	-1.22680399722085e-24
-0.4948385609687449	-1.193148978916528e-24
-0.4947775258124949	-1.1551711245454877e-24
-0.4947164906562449	-1.1130038916330248e-24
-0.4946554554999949	-1.0667956037952183e-24
-0.4945944203437449	-1.0167089328655854e-24
-0.4945333851874949	-9.629203610164236e-25
-0.4944723500312449	-9.05619557237078e-25
-0.4944113148749949	-8.450087033213761e-25
-0.4943502797187449	-7.813017808857405e-25
-0.4942892445624949	-7.147238279867368e-25
-0.4942282094062449	-6.455102288504254e-25
-0.4941671742499949	-5.739056757009088e-25
-0.4941061390937449	-5.001636087783445e-25
-0.4940451039374949	-4.245451194483113e-25
-0.4939840687812449	-3.473179157989889e-25
-0.4939230336249949	-2.687558910441925e-25
-0.4938619984687449	-1.8913753647940777e-25
-0.4938009633124949	-1.0874525365432714e-25
-0.4937399281562449	-2.7864594260832204e-26
-0.4936788929999949	5.321727483003278e-26
-0.4936178578437449	1.342121680656e-25
-0.4935568226874949	2.1483194867794096e-25
-0.4934957875312449	2.947898636092717e-25
-0.4934347523749949	3.7380105969826626e-25
-0.4933737172187449	4.515839829225752e-25
-0.4933126820624949	5.278613482873022e-25
-0.4932516469062449	6.023606664110199e-25
-0.4931906117499949	6.748159625429815e-25
-0.4931295765937449	7.449681475277218e-25
-0.4930685414374949	8.12565899863398e-25
-0.4930075062812449	8.77367183119051e-25
-0.4929464711249949	9.391393075050297e-25
-0.4928854359687449	9.976602480383115e-25
-0.4928244008124949	1.0527195654422949e-24
-0.4927633656562449	1.10411846491928e-24
-0.4927023304999949	1.1516712712165472e-24
-0.4926412953437449	1.1952057744276474e-24
-0.4925802601874949	1.2345636449483614e-24
-0.4925192250312449	1.2696013663448517e-24
-0.4924581898749949	1.300190549779779e-24
-0.4923971547187449	1.3262184581996295e-24
-0.4923361195624949	1.347588278410502e-24
-0.4922750844062449	1.3642197343383467e-24
-0.4922140492499949	1.376049188220734e-24
-0.4921530140937449	1.38302980827676e-24
-0.4920919789374949	1.385132030447732e-24
-0.4920309437812449	1.3823434024666706e-24
-0.4919699086249949	1.374668721396422e-24
-0.4919088734687449	1.3621301067294709e-24
-0.4918478383124949	1.3447668260863913e-24
-0.4917868031562449	1.3226352195250814e-24
-0.4917257679999949	1.295808521676758e-24
-0.4916647328437449	1.2643765489365726e-24
-0.4916036976874949	1.2284455045866863e-24
-0.4915426625312449	1.1881375054009068e-24
-0.4914816273749949	1.1435901743696809e-24
-0.4914205922187449	1.0949563121177557e-24
-0.4913595570624949	1.0424030867979167e-24
-0.4912985219062449	9.861117537334744e-25
-0.4912374867499949	9.262768189448057e-25
-0.4911764515937449	8.631053834884315e-25
-0.4911154164374949	7.9681663049535945e-25
-0.4910543812812449	7.276406498417733e-25
-0.4909933461249949	6.558180590208023e-25
-0.4909323109687449	5.815990014664961e-25
-0.4908712758124949	5.052419910558609e-25
-0.4908102406562449	4.270134964924602e-25
-0.4907492054999949	3.4718682585326065e-25
-0.4906881703437449	2.660407372201552e-25
-0.4906271351874949	1.8385915625762657e-25
-0.4905661000312449	1.0092985929414688e-25
-0.4905050648749949	1.7543096258985983e-26
-0.4904440297187449	-6.600870870070655e-26
-0.4903829945624949	-1.4943245802115874e-25
-0.4903219594062449	-2.324355737688424e-25
-0.4902609242499949	-3.147264388171546e-25
-0.4901998890937449	-3.960158889345224e-25
-0.4901388539374949	-4.760183173882539e-25
-0.4900778187812449	-5.544521435227193e-25
-0.4900167836249949	-6.310413909006415e-25
-0.4899557484687449	-7.055164081365947e-25
-0.4898947133124949	-7.776147251949856e-25
-0.4898336781562449	-8.470821866946018e-25
-0.4897726429999949	-9.13673788081908e-25
-0.4897116078437449	-9.771545424721079e-25
-0.4896505726874949	-1.0373001259878634e-24
-0.4895895375312449	-1.0938981543441589e-24
-0.4895285023749949	-1.1467484294321837e-24
-0.4894674672187449	-1.1956638259985788e-24
-0.4894064320624949	-1.2404712506232809e-24
-0.4893453969062449	-1.2810117373325917e-24
-0.4892843617499949	-1.3171414174853645e-24
-0.4892233265937449	-1.3487319564986768e-24
-0.4891622914374949	-1.3756708220941115e-24
-0.4891012562812449	-1.3978619459465938e-24
-0.4890402211249949	-1.4152259695861762e-24
-0.4889791859687449	-1.4277004300501472e-24
-0.4889181508124949	-1.4352401609459003e-24
-0.4888571156562449	-1.4378173832609327e-24
-0.4887960804999949	-1.4354217677344855e-24
-0.4887350453437449	-1.4280605527926711e-24
-0.4886740101874949	-1.4157585055215535e-24
-0.4886129750312449	-1.3985578213657588e-24
-0.4885519398749949	-1.3765179950571375e-24
-0.4884909047187449	-1.3497156329303677e-24
-0.4884298695624949	-1.3182441638612284e-24
-0.4883688344062449	-1.2822135478423588e-24
-0.4883077992499949	-1.2417498363058288e-24
-0.4882467640937449	-1.1969948260584845e-24
-0.4881857289374949	-1.1481054820558094e-24
-0.4881246937812449	-1.0952533606328861e-24
-0.4880636586249949	-1.0386242015037198e-24
-0.4880026234687449	-9.784169971954731e-25
-0.4879415883124949	-9.148434614857245e-25
-0.4878805531562449	-8.481273902679358e-25
-0.4878195179999949	-7.785035173687021e-25
-0.4877584828437449	-7.062170459922751e-25
-0.4876974476874949	-6.315227541040058e-25
-0.4876364125312449	-5.546836743214077e-25
-0.4875753773749949	-4.759707227268895e-25
-0.4875143422187449	-3.9566157886799817e-25
-0.4874533070624949	-3.1403926075751103e-25
-0.4873922719062449	-2.3139182046610652e-25
-0.4873312367499949	-1.4801088935030559e-25
-0.4872702015937449	-6.419065552268467e-26
-0.4872091664374949	1.9772981933392842e-26
-0.4871481312812449	1.0358368165720758e-25
-0.4870870961249949	1.8694541316413043e-25
-0.4870260609687449	2.6956396165224715e-25
-0.4869650258124949	3.511475365925213e-25
-0.4869039906562449	4.314079454346791e-25
-0.4868429554999949	5.100618392320435e-25
-0.4867819203437449	5.868313395848079e-25
-0.4867208851874949	6.6144537141997e-25
-0.4866598500312449	7.336404026561901e-25
-0.4865988148749949	8.031615020420142e-25
-0.4865377797187449	8.697631992390196e-25
-0.4864767445624949	9.332102965506033e-25
-0.4864157094062449	9.932790132937647e-25
-0.4863546742499949	1.0497572716052731e-24
-0.4862936390937449	1.1024458641837723e-24
-0.4862326039374949	1.1511591766152374e-24
-0.4861715687812449	1.1957254506367317e-24
-0.4861105336249949	1.235987891819697e-24
-0.4860494984687449	1.2718049158255963e-24
-0.4859884633124949	1.3030507420583914e-24
-0.4859274281562449	1.3296159238297217e-24
-0.4858663929999949	1.3514075825166089e-24
-0.4858053578437449	1.3683499262005158e-24
-0.4857443226874949	1.3803843892160944e-24
-0.4856832875312449	1.3874698957488381e-24
-0.4856222523749949	1.3895830402168598e-24
-0.4855612172187449	1.3867181056174351e-24
-0.4855001820624949	1.3788871766718589e-24
-0.4854391469062449	1.3661200317614426e-24
-0.4853781117499949	1.348464060068558e-24
-0.4853170765937449	1.3259841481819795e-24
-0.4852560414374949	1.298762372401385e-24
-0.4851950062812449	1.2668977693702384e-24
-0.4851339711249949	1.2305059806358964e-24
-0.4850729359687449	1.1897188247717907e-24
-0.4850119008124949	1.1446838704290126e-24
-0.4849508656562449	1.0955638436900959e-24
-0.4848898304999949	1.0425361326825804e-24
-0.4848287953437449	9.857921743967308e-25
-0.4847677601874949	9.255365614591465e-25
-0.4847067250312449	8.61986707426027e-25
-0.4846456898749949	7.953717007300951e-25
-0.4845846547187449	7.259315787653506e-25
-0.4845236195624949	6.539167853195477e-25
-0.4844625844062449	5.795867371220419e-25
-0.4844015492499949	5.032093993039475e-25
-0.4843405140937449	4.250599773542756e-25
-0.4842794789374949	3.4542015700933765e-25
-0.4842184437812449	2.645771208934703e-25
-0.4841574086249949	1.828220998319961e-25
-0.4840963734687449	1.0044997983918298e-25
-0.4840353383124949	1.7757888825575565e-26
-0.4839743031562449	-6.495607279325309e-26
-0.4839132679999949	-1.4739345098800317e-25
-0.4838522328437449	-2.292566438915042e-25
-0.4837911976874949	-3.102502849088723e-25
-0.4837301625312449	-3.9008191182802754e-25
-0.4836691273749949	-4.684630690615567e-25
-0.4836080922187449	-5.451106191735403e-25
-0.4835470570624949	-6.197474717876351e-25
-0.4834860219062449	-6.921035768492837e-25
-0.4834249867499949	-7.619172498390844e-25
-0.4833639515937449	-8.289356856329364e-25
-0.4833029164374949	-8.9291594904851e-25
-0.4832418812812449	-9.536262115065485e-25
-0.4831808461249949	-1.0108461859547353e-24
-0.4831198109687449	-1.0643679359152534e-24
-0.4830587758124949	-1.1139968866435994e-24
-0.4829977406562449	-1.1595525207625189e-24
-0.4829367054999949	-1.2008685610665706e-24
-0.4828756703437449	-1.237794142737404e-24
-0.4828146351874949	-1.2701942246281028e-24
-0.4827536000312449	-1.297949685661136e-24
-0.4826925648749949	-1.320958331384017e-24
-0.4826315297187449	-1.3391349504409218e-24
-0.4825704945624949	-1.352411565171026e-24
-0.4825094594062449	-1.3607379147282936e-24
-0.4824484242499949	-1.364081543296758e-24
-0.4823873890937449	-1.3624278145088174e-24
-0.4823263539374949	-1.3557801445681885e-24
-0.4822653187812449	-1.3441599550216147e-24
-0.4822042836249949	-1.3276064832793216e-24
-0.4821432484687449	-1.3061768377720738e-24
-0.4820822133124949	-1.2799456694631103e-24
-0.4820211781562449	-1.2490049599092845e-24
-0.4819601429999949	-1.2134637019154507e-24
-0.4818991078437449	-1.1734474866524304e-24
-0.4818380726874949	-1.1290981870449993e-24
-0.4817770375312449	-1.0805731726154661e-24
-0.4817160023749949	-1.0280451074430203e-24
-0.4816549672187449	-9.717011495745824e-25
-0.4815939320624949	-9.117421448407415e-25
-0.4815328969062449	-8.483823285337871e-25
-0.4814718617499949	-7.818480989890691e-25
-0.4814108265937449	-7.12377486939248e-25
-0.4813497914374949	-6.402193300283601e-25
-0.4812887562812449	-5.656321699545228e-25
-0.4812277211249949	-4.888835126300744e-25
-0.4811666859687449	-4.1024881693648405e-25
-0.4811056508124949	-3.3001054541029097e-25
-0.4810446156562449	-2.4845700283919686e-25
-0.4809835804999949	-1.6588153282398408e-25
-0.4809225453437449	-8.258136970130783e-26
-0.4808615101874949	1.143619940934509e-27
-0.4808004750312449	8.499163634151728e-26
-0.4807394398749949	1.6866033834612874e-25
-0.4806784047187449	2.5184785007062043e-25
-0.4806173695624949	3.3425373943073147e-25
-0.4805563344062449	4.1558019003196975e-25
-0.4804952992499949	4.955331359622514e-25
-0.4804342640937449	5.738232749574758e-25
-0.4803732289374949	6.501667844449209e-25
-0.4803121937812449	7.242871454823076e-25
-0.4802511586249949	7.959152906410989e-25
-0.4801901234687449	8.64790832080214e-25
-0.4801290883124949	9.306636245422038e-25
-0.4800680531562449	9.932935060316444e-25
-0.4800070179999949	1.052452211751269e-24
-0.4799459828437449	1.1079237946409258e-24
-0.4798849476874949	1.1595050877083948e-24
-0.4798239125312449	1.2070071907665971e-24
-0.4797628773749949	1.2502555037970056e-24
-0.4797018422187449	1.2890905265850994e-24
-0.4796408070624949	1.3233687182945166e-24
-0.4795797719062449	1.352962702473053e-24
-0.4795187367499949	1.3777618497830025e-24
-0.4794577015937449	1.3976727072028639e-24
-0.4793966664374949	1.4126193124981583e-24
-0.4793356312812449	1.4225435581378262e-24
-0.4792745961249949	1.4274052093027754e-24
-0.4792135609687449	1.4271823073457953e-24
-0.4791525258124949	1.421871166460898e-24
-0.4790914906562449	1.4114862547330452e-24
-0.4790304554999949	1.396060392682321e-24
-0.4789694203437449	1.375644512595656e-24
-0.4789083851874949	1.3503074608728721e-24
-0.4788473500312449	1.3201358586404972e-24
-0.4787863148749949	1.2852337274284741e-24
-0.4787252797187449	1.2457221577147695e-24
-0.4786642445624949	1.2017388791021352e-24
-0.4786032094062449	1.15343772938845e-24
-0.4785421742499949	1.1009882498846027e-24
-0.4784811390937449	1.0445748979703498e-24
-0.4784201039374949	9.84396457999265e-25
-0.4783590687812449	9.206655185736934e-25
-0.4782980336249949	8.536073939253088e-25
-0.4782369984687449	7.834595150043305e-25
-0.4781759633124949	7.1047065732655665e-25
-0.4781149281562449	6.348997884613625e-25
-0.4780538929999949	5.570154753209164e-25
-0.4779928578437449	4.770945389123848e-25
-0.4779318226874949	3.954214441994201e-25
-0.4778707875312449	3.122871565285746e-25
-0.4778097523749949	2.279876737622345e-25
-0.4777487172187449	1.4282392010738962e-25
-0.4776876820624949	5.709963234385671e-26
-0.4776266469062449	-2.8879247936233693e-26
-0.4775656117499949	-1.1480534294172602e-25
-0.4775045765937449	-2.0037173918329646e-25
-0.4774435414374949	-2.852724136265074e-25
-0.4773825062812449	-3.692036442072798e-25
-0.4773214711249949	-4.5186507155083425e-25
-0.4772604359687449	-5.329606676803445e-25
-0.4771994008124949	-6.122000123561394e-25
-0.4771383656562449	-6.892991752927147e-25
-0.4770773304999949	-7.639816642766493e-25
-0.4770162953437449	-8.359797606181548e-25
-0.4769552601874949	-9.050352125164604e-25
-0.4768942250312449	-9.709000408256148e-25
-0.4768331898749949	-1.0333378711983197e-24
-0.4767721547187449	-1.092124541454096e-24
-0.4767111195624949	-1.1470487773144709e-24
-0.4766500844062449	-1.1979131404875553e-24
-0.4765890492499949	-1.2445348244035321e-24
-0.4765280140937449	-1.2867462110319551e-24
-0.4764669789374949	-1.3243952948664112e-24
-0.4764059437812449	-1.3573465681025718e-24
-0.4763449086249949	-1.3854815249759602e-24
-0.4762838734687449	-1.4086986008981654e-24
-0.4762228383124949	-1.4269141340508571e-24
-0.4761618031562449	-1.4400624757403751e-24
-0.4761007679999949	-1.4480959825630289e-24
-0.4760397328437449	-1.4509856035899445e-24
-0.4759786976874949	-1.4487207116762025e-24
-0.4759176625312449	-1.4413092601823356e-24
-0.4758566273749949	-1.4287777331739406e-24
-0.4757955922187449	-1.411171073998148e-24
-0.4757345570624949	-1.388552531237288e-24
-0.4756735219062449	-1.3610033881380381e-24
-0.4756124867499949	-1.3286228052560938e-24
-0.4755514515937449	-1.2915272736151017e-24
-0.4754904164374949	-1.2498503976285496e-24
-0.4754293812812449	-1.2037423171432849e-24
-0.4753683461249949	-1.1533691242110516e-24
-0.4753073109687449	-1.0989124658920848e-24
-0.4752462758124949	-1.0405685904701439e-24
-0.4751852406562449	-9.785479738653568e-25
-0.4751242054999949	-9.130743558904108e-25
-0.4750631703437449	-8.44383849148818e-25
-0.4750021351874949	-7.72724528932456e-25
-0.4749411000312449	-6.98354950217521e-25
-0.4748800648749949	-6.21543578429516e-25
-0.4748190297187449	-5.42567941738372e-25
-0.4747579945624949	-4.617131662495019e-25
-0.4746969594062449	-3.792713910106918e-25
-0.4746359242499949	-2.955404609981691e-25
-0.4745748890937449	-2.1082300723189886e-25
-0.4745138539374949	-1.2542526720471302e-25
-0.4744528187812449	-3.965582436856136e-26
-0.4743917836249949	4.617502698834126e-26
-0.4743307484687449	1.3175703180893413e-25
-0.4742697133124949	2.16780659962202e-25
-0.4742086781562449	3.009382241865081e-25
-0.4741476429999949	3.8392543277105653e-25
-0.4740866078437449	4.654419221830793e-25
-0.4740255726874949	5.4519270631535285e-25
-0.4739645375312449	6.228891805178167e-25
-0.4739035023749949	6.982501432854194e-25
-0.4738424672187449	7.710027654901412e-25
-0.4737814320624949	8.408836583476361e-25
-0.4737203969062449	9.07639956041642e-25
-0.4736593617499949	9.710297781136667e-25
-0.4735983265937449	1.0308237423754674e-24
-0.4735372914374949	1.086805415059045e-24
-0.4734762562812449	1.1387719272867603e-24
-0.4734152211249949	1.1865353464058084e-24
-0.4733541859687449	1.2299227350648593e-24
-0.4732931508124949	1.2687770479411817e-24
-0.4732321156562449	1.3029577794733841e-24
-0.4731710804999949	1.3323413216079534e-24
-0.4731100453437449	1.3568215375570697e-24
-0.4730490101874949	1.3763100476735035e-24
-0.4729879750312449	1.3907366957601943e-24
-0.4729269398749949	1.400049647881809e-24
-0.4728659047187449	1.404215728915048e-24
-0.4728048695624949	1.4032204980330782e-24
-0.4727438344062449	1.3970682409430002e-24
-0.4726827992499949	1.385782108829704e-24
-0.4726217640937449	1.369403890484829e-24
-0.4725607289374949	1.3479939667938795e-24
-0.4724996937812449	1.3216310828446376e-24
-0.4724386586249949	1.2904119825640273e-24
-0.4723776234687449	1.2544512413571705e-24
-0.4723165883124949	1.2138806510856867e-24
-0.4722555531562449	1.1688488747577831e-24
-0.4721945179999949	1.1195209499635193e-24
-0.4721334828437449	1.0660775017475497e-24
-0.4720724476874949	1.0087143031391236e-24
-0.4720114125312449	9.476415022864798e-25
-0.4719503773749949	8.830827437225496e-25
-0.4718893422187449	8.152745320247262e-25
-0.4718283070624949	7.44465358097835e-25
-0.4717672719062449	6.709145423651063e-25
-0.4717062367499949	5.9489171317128305e-25
