Time	Frequency
-0.5000276789062497	-1.5039455464744831e-24
-0.49996664374999966	-1.5137253677122852e-24
-0.49990560859374966	-1.5187304456921437e-24
-0.49984457343749966	-1.5189416689671487e-24
-0.49978353828124966	-1.5143553988365176e-24
-0.49972250312499966	-1.5049834433084438e-24
-0.49966146796874966	-1.4908530292449605e-24
-0.49960043281249966	-1.4720067239790761e-24
-0.49953939765624966	-1.4485022916135097e-24
-0.49947836249999966	-1.4204125745192991e-24
-0.49941732734374966	-1.3878251659094727e-24
-0.49935629218749966	-1.3508422172283132e-24
-0.49929525703124966	-1.3095801227622055e-24
-0.49923422187499966	-1.264169014146501e-24
-0.49917318671874966	-1.2147525621184063e-24
-0.49911215156249966	-1.1614873585664596e-24
-0.49905111640624966	-1.104542406036318e-24
-0.49899008124999966	-1.0440987612938002e-24
-0.49892904609374966	-9.803487148172675e-25
-0.49886801093749966	-9.134953187695516e-25
-0.49880697578124966	-8.43751759583647e-25
-0.49874594062499966	-7.713405357402842e-25
-0.49868490546874966	-6.964928981177253e-25
-0.49862387031249966	-6.194480015613839e-25
-0.49856283515624966	-5.404521229835067e-25
-0.49850179999999966	-4.597580234349366e-25
-0.49844076484374966	-3.7762393162341147e-25
-0.49837972968749966	-2.9431276838075744e-25
-0.49831869453124966	-2.1009150480892627e-25
-0.49825765937499966	-1.2522994325151392e-25
-0.49819662421874966	-4.00000011472861e-26
-0.49813558906249966	4.532483811907929e-26
-0.49807455390624966	1.304710748363017e-25
-0.49801351874999966	2.1516562210840447e-25
-0.49795248359374966	2.9913653416203234e-25
-0.49789144843749966	3.8211448958680463e-25
-0.49783041328124966	4.638331652193391e-25
-0.49776937812499966	5.440301451726244e-25
-0.49770834296874966	6.224480334633975e-25
-0.49764730781249966	6.988351344222061e-25
-0.49758627265624966	7.729460854986223e-25
-0.49752523749999966	8.445430468202919e-25
-0.49746420234374966	9.133962433621653e-25
-0.49740316718749966	9.792845095747245e-25
-0.49734213203124966	1.0419965652911363e-24
-0.49728109687499966	1.1013311984829245e-24
-0.49722006171874966	1.1570979982307165e-24
-0.49715902656249966	1.2091183451641729e-24
-0.49709799140624966	1.2572255306106307e-24
-0.49703695624999966	1.3012655056265641e-24
-0.49697592109374966	1.341097513187719e-24
-0.49691488593749966	1.3765942647863218e-24
-0.49685385078124966	1.4076425739660127e-24
-0.49679281562499966	1.4341437057749432e-24
-0.49673178046874966	1.4560135911863846e-24
-0.49667074531249966	1.4731831922800139e-24
-0.49660971015624966	1.4855987594004284e-24
-0.49654867499999966	1.493221906733588e-24
-0.49648763984374966	1.4960298176854701e-24
-0.49642660468749966	1.4940153636303755e-24
-0.49636556953124966	1.4871869838550356e-24
-0.49630453437499966	1.4755688251725356e-24
-0.49624349921874966	1.4592005876398924e-24
-0.49618246406249966	1.4381373788806164e-24
-0.49612142890624966	1.412449629732166e-24
-0.49606039374999966	1.3822227631914756e-24
-0.49599935859374966	1.347556997368867e-24
-0.49593832343749966	1.3085670159087747e-24
-0.49587728828124966	1.265381537180787e-24
-0.49581625312499966	1.2181429715885635e-24
-0.49575521796874966	1.1670069700353846e-24
-0.49569418281249966	1.1121418394486116e-24
-0.49563314765624966	1.0537279940093413e-24
-0.49557211249999966	9.919576009966432e-25
-0.49551107734374966	9.27033651878125e-25
-0.49545004218749966	8.59169336683542e-25
-0.49538900703124966	7.885877062132892e-25
-0.49532797187499966	7.155205364105553e-25
-0.49526693671874966	6.4020762035433645e-25
-0.49520590156249966	5.628963551755034e-25
-0.49514486640624966	4.838405768447917e-25
-0.49508383124999966	4.0329962456687474e-25
-0.49502279609374966	3.2153810527310884e-25
-0.49496176093749966	2.388243389609999e-25
-0.49490072578124966	1.5542980179674678e-25
-0.49483969062499966	7.162847415653372e-26
-0.49477865546874966	-1.2304664836944612e-26
-0.49471762031249966	-9.609390368901382e-26
-0.49465658515624966	-1.7946411710266484e-25
-0.49459554999999966	-2.6214139388350057e-25
-0.49453451484374966	-3.438541916142394e-25
-0.49447347968749966	-4.243341608134812e-25
-0.49441244453124966	-5.033165150668419e-25
-0.49435140937499966	-5.805419365396643e-25
-0.49429037421874966	-6.5575650363057875e-25
-0.49422933906249966	-7.287126400612432e-25
-0.49416830390624966	-7.991707134360715e-25
-0.49410726874999966	-8.66898726639741e-25
-0.49404623359374966	-9.31673688564192e-25
-0.49398519843749966	-9.932825864524871e-25
-0.49392416328124966	-1.0515222769200866e-24
-0.49386312812499966	-1.1062009436200428e-24
-0.49380209296874966	-1.1571384414726671e-24
-0.49374105781249966	-1.2041665177849864e-24
-0.49368002265624966	-1.2471302109425946e-24
-0.49361898749999966	-1.2858875343192597e-24
-0.49355795234374966	-1.3203102494565688e-24
-0.49349691718749966	-1.3502846841347924e-24
-0.49343588203124966	-1.3757113141842659e-24
-0.49337484687499966	-1.3965058137113305e-24
-0.49331381171874966	-1.4125990232925884e-24
-0.49325277656249966	-1.4239370793491061e-24
-0.49319174140624966	-1.4304819292665982e-24
-0.49313070624999966	-1.4322111032338793e-24
-0.49306967109374966	-1.4291180637034574e-24
-0.49300863593749966	-1.4212121141081293e-24
-0.49294760078124966	-1.4085183531169907e-24
-0.49288656562499966	-1.3910776896856923e-24
-0.49282553046874966	-1.3689466427273523e-24
-0.49276449531249966	-1.3421972030211574e-24
-0.49270346015624966	-1.3109165543374387e-24
-0.49264242499999966	-1.2752068893897008e-24
-0.49258138984374966	-1.2351849786103464e-24
-0.49252035468749966	-1.1909818136278429e-24
-0.49245931953124966	-1.142742304457955e-24
-0.49239828437499966	-1.0906246082085774e-24
-0.49233724921874966	-1.0347997898121501e-24
-0.49227621406249966	-9.754512017626573e-25
-0.49221517890624966	-9.127738014732365e-25
-0.49215414374999966	-8.469737796969321e-25
-0.49209310859374966	-7.782674925510927e-25
-0.49203207343749966	-7.068811654017719e-25
-0.49197103828124966	-6.33049928681289e-25
-0.49191000312499966	-5.570168917079327e-25
-0.49184896796874966	-4.790329478407465e-25
-0.49178793281249966	-3.9935511381070315e-25
-0.49172689765624966	-3.182464055768209e-25
-0.49166586249999966	-2.359747092910953e-25
-0.49160482734374966	-1.5281166315782805e-25
-0.49154379218749966	-6.90322826326007e-26
-0.49148275703124966	1.5086444009880848e-26
-0.49142172187499966	9.926607289955871e-26
-0.49136068671874966	1.832279662100208e-25
-0.49129965156249966	2.666938422644479e-25
-0.49123861640624966	3.4938702305687637e-25
-0.49117758124999966	4.310331797658204e-25
-0.49111654609374966	5.113610945482582e-25
-0.49105551093749966	5.901040409253632e-25
-0.49099447578124966	6.66999984059557e-25
-0.49093344062499966	7.4179300158282825e-25
-0.49087240546874966	8.142339149876404e-25
-0.49081137031249966	8.840810350113089e-25
-0.49075033515624966	9.511011334262455e-25
-0.49068929999999966	1.0150700781266092e-24
-0.49062826484374966	1.0757736294059664e-24
-0.49056722968749966	1.1330081804704497e-24
-0.49050619453124966	1.1865814099636235e-24
-0.49044515937499966	1.2363127494142243e-24
-0.49038412421874966	1.2820344681902822e-24
-0.49032308906249966	1.3235916095862332e-24
-0.49026205390624966	1.3608428330365639e-24
-0.49020101874999966	1.3936611730417767e-24
-0.49013998359374966	1.4219337265549377e-24
-0.49007894843749966	1.4455627389142444e-24
-0.49001791328124966	1.4644656568331587e-24
-0.48995687812499966	1.4785752265305503e-24
-0.48989584296874966	1.4878400937996955e-24
-0.48983480781249966	1.4922247214037007e-24
-0.48977377265624966	1.4917095831879144e-24
-0.48971273749999966	1.4862912770634991e-24
-0.48965170234374966	1.475982509732051e-24
-0.48959066718749966	1.4608120629526994e-24
-0.48952963203124966	1.4408247358126661e-24
-0.48946859687499966	1.416081168444869e-24
-0.48940756171874966	1.3866577112301217e-24
-0.48934652656249966	1.3526461193954432e-24
-0.48928549140624966	1.3141532608491237e-24
-0.48922445624999966	1.271300946549e-24
-0.48916342109374966	1.224225160848265e-24
-0.48910238593749966	1.1730760593624546e-24
-0.48904135078124966	1.1180172931131766e-24
-0.48898031562499966	1.0592251854942159e-24
-0.48891928046874966	9.96888884103558e-25
-0.48885824531249966	9.312089756152642e-25
-0.48879721015624966	8.623971937891936e-25
-0.48873617499999966	7.9067597052270075e-25
-0.48867513984374966	7.16277061879123e-25
-0.48861410468749966	6.3944146165142345e-25
-0.48855306953124966	5.604182765237543e-25
-0.48849203437499966	4.794637748937746e-25
-0.48843099921874966	3.968410033546479e-25
-0.48836996406249966	3.1281851144466036e-25
-0.48830892890624966	2.276695531570819e-25
-0.48824789374999966	1.4167146628348858e-25
-0.48818685859374966	5.510439553743491e-26
-0.48812582343749966	-3.17495437211757e-26
-0.48806478828124966	-1.186068193421701e-25
-0.48800375312499966	-2.0518399851528662e-25
-0.48794271796874966	-2.911983242262422e-25
-0.48788168281249966	-3.763685632139602e-25
-0.48782064765624966	-4.604163693832905e-25
-0.48775961249999966	-5.430665870741664e-25
-0.48769857734374966	-6.240486897601288e-25
-0.48763754218749966	-7.030975337600746e-25
-0.48757650703124966	-7.799539044836526e-25
-0.48751547187499966	-8.543658311493438e-25
-0.48745443671874966	-9.260892968758755e-25
-0.48739340156249966	-9.948887165859647e-25
-0.48733236640624966	-1.0605381633077942e-24
-0.48727133124999966	-1.1228219801475457e-24
-0.48721029609374966	-1.1815351787626735e-24
-0.48714926093749966	-1.2364846981957634e-24
-0.48708822578124966	-1.2874895356111219e-24
-0.48702719062499966	-1.3343815514165007e-24
-0.48696615546874966	-1.3770061653486007e-24
-0.48690512031249966	-1.4152225721238282e-24
-0.48684408515624966	-1.448904441344872e-24
-0.48678304999999966	-1.4779402802896946e-24
-0.48672201484374966	-1.5022337967129299e-24
-0.48666097968749966	-1.5217041754454644e-24
-0.48659994453124966	-1.5362864459854804e-24
-0.48653890937499966	-1.545931698848295e-24
-0.48647787421874966	-1.5506071324247864e-24
-0.48641683906249966	-1.5502962771899107e-24
-0.48635580390624966	-1.5449990986593689e-24
-0.48629476874999966	-1.5347318666873521e-24
-0.48623373359374966	-1.5195271882006816e-24
-0.48617269843749966	-1.4994339630166882e-24
-0.48611166328124966	-1.4745171135215242e-24
-0.48605062812499966	-1.4448574307429432e-24
-0.48598959296874966	-1.4105513822909928e-24
-0.48592855781249966	-1.3717106617892143e-24
-0.48586752265624966	-1.3284619408195668e-24
-0.48580648749999966	-1.2809464567092044e-24
-0.48574545234374966	-1.229319419082012e-24
-0.48568441718749966	-1.1737497278688024e-24
-0.48562338203124966	-1.11441919411758e-24
-0.48556234687499966	-1.0515220556416198e-24
-0.48550131171874966	-9.85264482819851e-25
-0.48544027656249966	-9.15863498741222e-25
-0.48537924140624966	-8.435467243273528e-25
-0.48531820624999966	-7.685514589903041e-25
-0.48525717109374966	-6.911235908311627e-25
-0.48519613593749966	-6.115174361351367e-25
-0.48513510078124966	-5.299943308362323e-25
-0.48507406562499966	-4.468218824265724e-25
-0.48501303046874966	-3.6227352802989925e-25
-0.48495199531249966	-2.7662691691353797e-25
-0.48489096015624966	-1.9016356997228484e-25
-0.48482992499999966	-1.0316770517812981e-25
-0.48476888984374966	-1.5925323298856173e-26
-0.48470785468749966	7.127661849682523e-26
-0.48464681953124966	1.581515035846484e-25
-0.48458578437499966	2.444134069415887e-25
-0.48452474921874966	3.2977869153069775e-25
-0.48446371406249966	4.139664825420776e-25
-0.48440267890624966	4.96699782320048e-25
-0.48434164374999966	5.777064381232567e-25
-0.48428060859374966	6.567197858862241e-25
-0.48421957343749966	7.334800538351207e-25
-0.48415853828124966	8.07734455890394e-25
-0.48409750312499966	8.79238829659972e-25
-0.48403646796874966	9.477579976845522e-25
-0.48397543281249966	1.013066346137004e-24
-0.48391439765624966	1.074949411987005e-24
-0.48385336249999966	1.1332035414483564e-24
-0.48379232734374966	1.1876372684454448e-24
-0.48373129218749966	1.2380719612440242e-24
-0.48367025703124966	1.284341792416332e-24
-0.48360922187499966	1.3262951245981964e-24
-0.48354818671874966	1.3637944081912671e-24
-0.48348715156249966	1.3967168025465707e-24
-0.48342611640624966	1.424954883396286e-24
-0.48336508124999966	1.4484164599944218e-24
-0.48330404609374966	1.4670253379596827e-24
-0.48324301093749966	1.48072146181766e-24
-0.48318197578124966	1.4894609536595174e-24
-0.48312094062499966	1.493216460739193e-24
-0.48305990546874966	1.4919772029775597e-24
-0.48299887031249966	1.4857489461771045e-24
-0.48293783515624966	1.4745540482239677e-24
-0.48287679999999966	1.4584314006471248e-24
-0.48281576484374966	1.4374362622926899e-24
-0.48275472968749966	1.411640114143169e-24
-0.48269369453124966	1.3811303908096483e-24
-0.48263265937499966	1.3460102829181412e-24
-0.48257162421874966	1.306398249633278e-24
-0.48251058906249966	1.2624277962568948e-24
-0.48244955390624966	1.2142469407682179e-24
-0.48238851874999966	1.1620176584465989e-24
-0.48232748359374966	1.1059156430924536e-24
-0.48226644843749966	1.0461292326071245e-24
-0.48220541328124966	9.82859336952465e-25
-0.48214437812499966	9.163184169080778e-25
-0.48208334296874966	8.467296677928221e-25
-0.48202230781249966	7.743269786475389e-25
-0.48196127265624966	6.993531462569786e-25
-0.48190023749999966	6.220598332299791e-25
-0.48183920234374966	5.427066434649527e-25
-0.48177816718749966	4.615597418734092e-25
-0.48171713203124966	3.7889163069336506e-25
-0.48165609687499966	2.9497987407817085e-25
-0.48159506171874966	2.1010619375694674e-25
-0.48153402656249966	1.2455567014217524e-25
-0.48147299140624966	3.8615660676908504e-26
-0.48141195624999966	-4.742513835893653e-26
-0.48135092109374966	-1.3327744194161374e-25
-0.48128988593749966	-2.1865270794075305e-25
-0.48122885078124966	-3.0326390241380466e-25
-0.48116781562499966	-3.8682629872852093e-25
-0.48110678046874966	-4.690587573739171e-25
-0.48104574531249966	-5.496844252931679e-25
-0.48098471015624966	-6.284317400812149e-25
-0.48092367499999966	-7.050353765434393e-25
-0.48086263984374966	-7.792370437488585e-25
-0.48080160468749966	-8.507864182687697e-25
-0.48074056953124966	-9.194420094129233e-25
-0.48067953437499966	-9.849718454106553e-25
-0.48061849921874966	-1.0471543742736942e-24
-0.48055746406249966	-1.1057792062803567e-24
-0.48049642890624966	-1.1606476941914365e-24
-0.48043539374999966	-1.2115737428235251e-24
-0.48037435859374966	-1.2583844294656484e-24
-0.48031332343749966	-1.300920440296968e-24
-0.48025228828124966	-1.3390367438270154e-24
-0.48019125312499966	-1.37260315994152e-24
-0.48013021796874966	-1.4015045124791073e-24
-0.48006918281249966	-1.4256412902521857e-24
-0.48000814765624966	-1.4449299970613424e-24
-0.47994711249999966	-1.4593031369153224e-24
-0.47988607734374966	-1.4687097843850597e-24
-0.47982504218749966	-1.4731156528518558e-24
-0.47976400703124966	-1.4725030894976828e-24
-0.47970297187499966	-1.466871329089016e-24
-0.47964193671874966	-1.4562364141979838e-24
-0.47958090156249966	-1.440631149012471e-24
-0.47951986640624966	-1.4201049947851974e-24
-0.47945883124999966	-1.3947239921786054e-24
-0.47939779609374966	-1.3645704194981529e-24
-0.47933676093749966	-1.3297426237219151e-24
-0.47927572578124966	-1.2903547102488418e-24
-0.47921469062499966	-1.2465360355976785e-24
-0.47915365546874966	-1.1984310162455185e-24
-0.47909262031249966	-1.1461983870928789e-24
-0.47903158515624966	-1.0900108676305078e-24
-0.47897054999999966	-1.0300545801155517e-24
-0.47890951484374966	-9.665282761771822e-25
-0.47884847968749966	-8.996429100304554e-25
-0.47878744453124966	-8.296207519997648e-25
-0.47872640937499966	-7.56694722654561e-25
-0.47866537421874966	-6.811076501927513e-25
-0.47860433906249966	-6.031114214765458e-25
-0.47854330390624966	-5.229661319779528e-25
-0.47848226874999966	-4.409392734176338e-25
-0.47842123359374966	-3.5730480059374724e-25
-0.47836019843749966	-2.7234223177905903e-25
-0.47829916328124966	-1.863357369377704e-25
-0.47823812812499966	-9.957306523816843e-26
-0.47817709296874966	-1.2344919564105959e-26
-0.47811605781249966	7.505652053917071e-26
-0.47805502265624966	1.6233821149319229e-25
-0.47799398749999966	2.492070481726346e-25
-0.47793295234374966	3.353716377489803e-25
-0.47787191718749966	4.205423062478096e-25
-0.47781088203124966	5.044326231141537e-25
-0.47774984687499966	5.867604557524324e-25
-0.47768881171874966	6.672484074338595e-25
-0.47762777656249966	7.45625317923508e-25
-0.47756674140624966	8.216266952497601e-25
-0.47750570624999966	8.949960124384918e-25
-0.47744467109374966	9.654853098662415e-25
-0.47738363593749966	1.0328559539074173e-24
-0.47732260078124966	1.0968799065761794e-24
-0.47726156562499966	1.1573399253841414e-24
-0.47720053046874966	1.2140305742050305e-24
-0.47713949531249966	1.2667590228463312e-24
-0.47707846015624966	1.3153455008250001e-24
-0.47701742499999966	1.3596239232882355e-24
-0.47695638984374966	1.3994426118269596e-24
-0.47689535468749966	1.434664694141997e-24
-0.47683431953124966	1.4651684835648457e-24
-0.47677328437499966	1.4908481787596674e-24
-0.47671224921874966	1.5116139192007454e-24
-0.47665121406249966	1.527392226349213e-24
-0.47659017890624966	1.5381263785783132e-24
-0.47652914374999966	1.543776367147052e-24
-0.47646810859374966	1.5443192283988287e-24
-0.47640707343749966	1.5397490811395443e-24
-0.47634603828124966	1.5300770981825404e-24
-0.47628500312499966	1.515331579037972e-24
-0.47622396796874966	1.4955577853591045e-24
-0.47616293281249966	1.4708178200474047e-24
-0.47610189765624966	1.4411904778732125e-24
-0.47604086249999966	1.4067709026477047e-24
-0.47597982734374966	1.3676703496897745e-24
-0.47591879218749966	1.324015826456403e-24
-0.47585775703124966	1.2759495972392476e-24
-0.47579672187499966	1.2236287786472487e-24
-0.47573568671874966	1.167224876092174e-24
-0.47567465156249966	1.1069230707387788e-24
-0.47561361640624966	1.042921694863258e-24
-0.47555258124999966	9.754316670356385e-25
-0.47549154609374966	9.046755623366793e-25
-0.47543051093749966	8.308870645544541e-25
-0.47536947578124966	7.543101676752345e-25
-0.47530844062499966	6.751982678319981e-25
-0.47524740546874966	5.938133959946637e-25
-0.47518637031249966	5.104253308904352e-25
-0.47512533515624966	4.25310680304744e-25
-0.47506429999999966	3.3875201797632644e-25
-0.47500326484374966	2.5103678729799363e-25
-0.47494222968749966	1.6245655300108209e-25
-0.47488119453124966	7.330593663447537e-26
-0.47482015937499966	-1.6118613513009255e-26
-0.47475912421874966	-1.0551924430796838e-25
-0.47469808906249966	-1.9459833052532383e-25
-0.47463705390624966	-2.8305910929968156e-25
-0.47457601874999966	-3.706065796345917e-25
-0.47451498359374966	-4.5694899771795045e-25
-0.47445394843749966	-5.4179823272916725e-25
-0.47439291328124966	-6.248711050512816e-25
-0.47433187812499966	-7.058904135477825e-25
-0.47427084296874966	-7.8458552367754e-25
-0.47420980781249966	-8.606935400109988e-25
-0.47414877265624966	-9.33960207071284e-25
-0.47408773749999966	-1.0041405325211717e-24
-0.47402670234374966	-1.0709999736824237e-24
-0.47396566718749966	-1.1343148109526655e-24
-0.47390463203124966	-1.1938732104836825e-24
-0.47384359687499966	-1.2494760052575808e-24
-0.47378256171874966	-1.3009368723624989e-24
-0.47372152656249966	-1.3480836535764524e-24
-0.47366049140624966	-1.390758388928171e-24
-0.47359945624999966	-1.4288181046866061e-24
-0.47353842109374966	-1.4621353697969817e-24
-0.47347738593749966	-1.4905983578944924e-24
-0.47341635078124966	-1.51411181083322e-24
-0.47335531562499966	-1.5325968419582366e-24
-0.47329428046874966	-1.5459914013888823e-24
-0.47323324531249966	-1.5542506791918535e-24
-0.47317221015624966	-1.5573469061014569e-24
-0.47311117499999966	-1.5552697315614383e-24
-0.47305013984374966	-1.5480261641151147e-24
-0.47298910468749966	-1.535640548340832e-24
-0.47292806953124966	-1.518154524848442e-24
-0.47286703437499966	-1.4956268531355966e-24
-0.47280599921874966	-1.4681332971273885e-24
-0.47274496406249966	-1.4357662725436759e-24
-0.47268392890624966	-1.3986346219305777e-24
-0.47262289374999966	-1.3568632903147455e-24
-0.47256185859374966	-1.3105927279457483e-24
-0.47250082343749966	-1.2599786654087076e-24
-0.47243978828124966	-1.2051914757591915e-24
