Time	Frequency
-0.5000408800312499	-1.3519619268225873e-24
-0.4999798448749999	-1.401102591137845e-24
-0.4999188097187499	-1.4462996236380946e-24
-0.4998577745624999	-1.4874211473911095e-24
-0.4997967394062499	-1.5243467054595508e-24
-0.4997357042499999	-1.5569678694142015e-24
-0.4996746690937499	-1.5851880691013943e-24
-0.4996136339374999	-1.60892337461525e-24
-0.4995525987812499	-1.6281025312487834e-24
-0.4994915636249999	-1.6426669849013408e-24
-0.4994305284687499	-1.652571487196881e-24
-0.4993694933124999	-1.657783783896504e-24
-0.4993084581562499	-1.658285012813248e-24
-0.4992474229999999	-1.6540696643830078e-24
-0.4991863878437499	-1.6451455604519358e-24
-0.4991253526874999	-1.6315339428828179e-24
-0.4990643175312499	-1.6132693317422435e-24
-0.4990032823749999	-1.5903994802842131e-24
-0.4989422472187499	-1.5629852417765661e-24
-0.4988812120624999	-1.531100394523593e-24
-0.4988201769062499	-1.494831437994528e-24
-0.4987591417499999	-1.4542773999325844e-24
-0.4986981065937499	-1.4095494661573711e-24
-0.4986370714374999	-1.3607708070528909e-24
-0.4985760362812499	-1.3080760794006105e-24
-0.4985150011249999	-1.2516111933742698e-24
-0.4984539659687499	-1.1915328478809533e-24
-0.4983929308124999	-1.1280080195688748e-24
-0.4983318956562499	-1.0612136739335332e-24
-0.4982708604999999	-9.913360071141706e-25
-0.4982098253437499	-9.185702809934854e-25
-0.4981487901874999	-8.431198840994183e-25
-0.4980877550312499	-7.651960054031628e-25
-0.4980267198749999	-6.850170576682559e-25
-0.4979656847187499	-6.028078437085709e-25
-0.4979046495624999	-5.18799219868141e-25
-0.4978436144062499	-4.332270866910256e-25
-0.4977825792499999	-3.463321398429016e-25
-0.4977215440937499	-2.5835881676466442e-25
-0.4976605089374999	-1.6955479650280211e-25
-0.4975994737812499	-8.017034132346438e-26
-0.4975384386249999	9.542655580084478e-27
-0.4974774034687499	9.933099780216605e-26
-0.4974163683124999	1.88941366378842e-25
-0.4973553331562499	2.781206306251194e-25
-0.4972942979999999	3.6661672435357583e-25
-0.4972332628437499	4.541795815614405e-25
-0.4971722276874999	5.405613457692804e-25
-0.4971111925312499	6.255175810888744e-25
-0.4970501573749999	7.088077282079365e-25
-0.4969891222187499	7.901956522422268e-25
-0.4969280870624999	8.694507554023367e-25
-0.4968670519062499	9.46348060556648e-25
-0.4968060167499999	1.020669369216662e-24
-0.4967449815937499	1.092203703149558e-24
-0.4966839464374999	1.160747488772218e-24
-0.4966229112812499	1.2261060881576602e-24
-0.4965618761249999	1.2880933883102313e-24
-0.4965008409687499	1.3465327737448697e-24
-0.4964398058124999	1.4012578604765117e-24
-0.4963787706562499	1.4521123404742492e-24
-0.4963177354999999	1.498951114732064e-24
-0.4962567003437499	1.5416401917604351e-24
-0.4961956651874999	1.5800574388004759e-24
-0.4961346300312499	1.6140926376547997e-24
-0.4960735948749999	1.6436479943864316e-24
-0.4960125597187499	1.668638492458946e-24
-0.4959515245624999	1.688991722051111e-24
-0.4958904894062499	1.7046487600397397e-24
-0.4958294542499999	1.715563686199307e-24
-0.4957684190937499	1.7217041282099686e-24
-0.4957073839374999	1.7230513049719432e-24
-0.4956463487812499	1.7195998147037452e-24
-0.4955853136249999	1.7113581098633807e-24
-0.4955242784687499	1.6983480826600795e-24
-0.4954632433124999	1.6806051574215653e-24
-0.4954022081562499	1.6581783151492507e-24
-0.4953411729999999	1.6311297160180226e-24
-0.4952801378437499	1.5995347261868822e-24
-0.4952191026874999	1.5634816461517532e-24
-0.4951580675312499	1.523071427806159e-24
-0.4950970323749999	1.4784174113325875e-24
-0.4950359972187499	1.4296450940812783e-24
-0.4949749620624999	1.3768916670559679e-24
-0.4949139269062499	1.3203055758958521e-24
-0.4948528917499999	1.2600464423782698e-24
-0.4947918565937499	1.1962840400574012e-24
-0.4947308214374999	1.1291983979749758e-24
-0.4946697862812499	1.058979043859308e-24
-0.4946087511249999	9.858241412247044e-25
-0.4945477159687499	9.099407442312181e-25
-0.4944866808124999	8.315433070674287e-25
-0.4944256456562499	7.508535852690003e-25
-0.4943646104999999	6.681001471955984e-25
-0.4943035753437499	5.835171087658073e-25
-0.4942425401874999	4.973441029258247e-25
-0.4941815050312499	4.098253398157449e-25
-0.4941204698749999	3.2120873388206115e-25
-0.4940594347187499	2.317454843650277e-25
-0.4939983995624999	1.4168942454346285e-25
-0.4939373644062499	5.129571111180082e-26
-0.4938763292499999	-3.9179064994974885e-26
-0.4938152940937499	-1.2947816918584263e-25
-0.4937542589374999	-2.1934560887188228e-25
-0.4936932237812499	-3.085259371130032e-25
-0.4936321886249999	-3.9676636153405276e-25
-0.4935711534687499	-4.8381614529532395e-25
-0.4935101183124999	-5.6942817664915645e-25
-0.4934490831562499	-6.533594115912055e-25
-0.4933880479999999	-7.35371315206671e-25
-0.4933270128437499	-8.152312722339819e-25
-0.4932659776874999	-8.927120605985901e-25
-0.4932049425312499	-9.675940332375604e-25
-0.4931439073749999	-1.03966429319058e-24
-0.4930828722187499	-1.1087180447539576e-24
-0.4930218370624999	-1.1745596038090175e-24
-0.4929608019062499	-1.2370015793884823e-24
-0.4928997667499999	-1.2958669699519105e-24
-0.4928387315937499	-1.3509887143489612e-24
-0.4927776964374999	-1.4022102821085754e-24
-0.4927166612812499	-1.449386588504546e-24
-0.4926556261249999	-1.492383820164423e-24
-0.4925945909687499	-1.5310802773616637e-24
-0.4925335558124999	-1.565366438724904e-24
-0.4924725206562499	-1.5951454545433292e-24
-0.4924114854999999	-1.6203333836746355e-24
-0.4923504503437499	-1.6408593013198023e-24
-0.4922894151874999	-1.656665774972695e-24
-0.4922283800312499	-1.667708796846702e-24
-0.4921673448749999	-1.6739579817748346e-24
-0.4921063097187499	-1.6753967486329914e-24
-0.4920452745624999	-1.672022279153108e-24
-0.4919842394062499	-1.6638454982170342e-24
-0.4919232042499999	-1.6508911980476537e-24
-0.4918621690937499	-1.6331978076409266e-24
-0.4918011339374999	-1.6108173821953066e-24
-0.4917400987812499	-1.5838154466512382e-24
-0.4916790636249999	-1.5522707674423052e-24
-0.4916180284687499	-1.5162752167460298e-24
-0.4915569933124999	-1.475933398158649e-24
-0.4914959581562499	-1.4313624594812981e-24
-0.4914349229999999	-1.3826917129139485e-24
-0.4913738878437499	-1.3300622823138554e-24
-0.4913128526874999	-1.2736265944456073e-24
-0.4912518175312499	-1.2135482301931936e-24
-0.4911907823749999	-1.1500011043320547e-24
-0.4911297472187499	-1.083169138166879e-24
-0.4910687120624999	-1.0132459886500958e-24
-0.4910076769062499	-9.404337962455683e-25
-0.4909466417499999	-8.649434615264924e-25
-0.4908856065937499	-7.869934772008644e-25
-0.4908245714374999	-7.068093230960846e-25
-0.4907635362812499	-6.246232930963771e-25
-0.4907025011249999	-5.406730858901302e-25
-0.4906414659687499	-4.552018576220812e-25
-0.4905804308124999	-3.6845707848569866e-25
-0.4905193956562499	-2.806898410258962e-25
-0.4904583604999999	-1.9215444953714802e-25
-0.4903973253437499	-1.0310731583205147e-25
-0.4903362901874999	-1.380646447298313e-26
-0.4902752550312499	7.548935282352568e-26
-0.4902142198749999	1.6452123486485078e-25
-0.4901531847187499	2.5303105511309287e-25
-0.4900921495624999	3.407621537474734e-25
-0.4900311144062499	4.274598897947923e-25
-0.4899700792499999	5.128727508499567e-25
-0.4899090440937499	5.967527713592473e-25
-0.4898480089374999	6.788562144147706e-25
-0.4897869737812499	7.589446369613316e-25
-0.4897259386249999	8.367852059220928e-25
-0.4896649034687499	9.12151439584357e-25
-0.4896038683124999	9.848241669085098e-25
-0.4895428331562499	1.0545917124540618e-24
-0.4894817979999999	1.1212507827948443e-24
-0.4894207628437499	1.1846070933724856e-24
-0.4893597276874999	1.2444757107370035e-24
-0.4892986925312499	1.3006818125855832e-24
-0.4892376573749999	1.3530610403213198e-24
-0.4891766222187499	1.4014601247138324e-24
-0.4891155870624999	1.4457371586086817e-24
-0.4890545519062499	1.4857621060773398e-24
-0.4889935167499999	1.5214173362902967e-24
-0.4889324815937499	1.5525975776727495e-24
-0.4888714464374999	1.5792106200656678e-24
-0.4888104112812499	1.601177438264715e-24
-0.4887493761249999	1.6184322849524296e-24
-0.4886883409687499	1.6309231873832476e-24
-0.4886273058124999	1.6386118258548563e-24
-0.4885662706562499	1.6414737949873313e-24
-0.4885052354999999	1.6394986712025793e-24
-0.4884442003437499	1.6326899997661574e-24
-0.4883831651874999	1.6210653363803447e-24
-0.4883221300312499	1.604656185541569e-24
-0.4882610948749999	1.5835079219705838e-24
-0.4882000597187499	1.5576796620377764e-24
-0.4881390245624999	1.5272441021604677e-24
-0.4880779894062499	1.4922873198219784e-24
-0.4880169542499999	1.452908540512461e-24
-0.4879559190937499	1.4092198043638064e-24
-0.4878948839374999	1.3613457678588492e-24
-0.4878338487812499	1.3094231959286323e-24
-0.4877728136249999	1.2536006926901113e-24
-0.4877117784687499	1.1940382806770586e-24
-0.4876507433124999	1.1309067617023085e-24
-0.4875897081562499	1.0643875583891844e-24
-0.4875286729999999	9.946718707138268e-25
-0.4874676378437499	9.219602683861372e-25
-0.4874066026874999	8.464623055227586e-25
-0.4873455675312499	7.683953618442794e-25
-0.4872845323749999	6.879847227909242e-25
-0.4872234972187499	6.054625584421679e-25
-0.4871624620624999	5.210669944284128e-25
-0.4871014269062499	4.350421000020437e-25
-0.4870403917499999	3.47636652111947e-25
-0.4869793565937499	2.5910345862715934e-25
-0.4869183214374999	1.6969898348572348e-25
-0.4868572862812499	7.968223475851906e-26
-0.4867962511249999	-1.0685871229029e-26
-0.4867352159687499	-1.0114312412081813e-25
-0.4866741808124999	-1.9142699691161985e-25
-0.4866131456562499	-2.8127524153014367e-25
-0.4865521104999999	-3.7042674090744667e-25
-0.4864910753437499	-4.586220707500427e-25
-0.4864300401874999	-5.4560473056527375e-25
-0.4863690050312499	-6.311213094776528e-25
-0.4863079698749999	-7.149223773796449e-25
-0.4862469347187499	-7.967637545787906e-25
-0.4861858995624999	-8.764062803167671e-25
-0.4861248644062499	-9.5361724422308e-25
-0.4860638292499999	-1.0281709103316795e-24
-0.4860027940937499	-1.0998488438842654e-24
-0.4859417589374999	-1.1684409044591645e-24
-0.4858807237812499	-1.2337458789198065e-24
-0.4858196886249999	-1.2955717071765212e-24
-0.4857586534687499	-1.3537363266508735e-24
-0.4856976183124999	-1.4080683877935535e-24
-0.4856365831562499	-1.458407103301156e-24
-0.4855755479999999	-1.50460344796143e-24
-0.4855145128437499	-1.546520320637201e-24
-0.4854534776874999	-1.5840325410168818e-24
-0.4853924425312499	-1.6170280105872031e-24
-0.4853314073749999	-1.6454074514562404e-24
-0.4852703722187499	-1.6690847319991812e-24
-0.4852093370624999	-1.6879875735020433e-24
-0.4851483019062499	-1.702057217886124e-24
-0.4850872667499999	-1.7112489012182274e-24
-0.4850262315937499	-1.715532052562796e-24
-0.4849651964374999	-1.7148901241991867e-24
-0.4849041612812499	-1.7093209048394084e-24
-0.4848431261249999	-1.6988364154783603e-24
-0.4847820909687499	-1.6834628654069145e-24
-0.4847210558124999	-1.6632406599667134e-24
-0.4846600206562499	-1.6382242450014983e-24
-0.4845989854999999	-1.6084819415419772e-24
-0.4845379503437499	-1.5740958145720705e-24
-0.4844769151874999	-1.535161395428838e-24
-0.4844158800312499	-1.4917874034747476e-24
-0.4843548448749999	-1.444095541753602e-24
-0.4842938097187499	-1.3922199625336511e-24
-0.4842327745624999	-1.3363070719634076e-24
-0.4841717394062499	-1.2765150611479798e-24
-0.4841107042499999	-1.2130133156689893e-24
-0.4840496690937499	-1.1459822322616418e-24
-0.4839886339374999	-1.075612344602747e-24
-0.4839275987812499	-1.0021040161684868e-24
-0.4838665636249999	-9.256669188659806e-25
-0.4838055284687499	-8.465190416505937e-25
-0.4837444933124999	-7.648866417090307e-25
-0.4836834581562499	-6.810030972614326e-25
-0.4836224229999999	-5.951084441427818e-25
-0.4835613878437499	-5.074487587578349e-25
-0.4835003526874999	-4.182753214642994e-25
-0.4834393175312499	-3.278438117192667e-25
-0.4833782823749999	-2.3641378369183977e-25
-0.4833172472187499	-1.44248027183367e-25
-0.4832562120624999	-5.161097709027691e-26
-0.4831951769062499	4.1230631468339324e-26
-0.4831341417499999	1.3400985325404776e-25
-0.4830731065937499	2.264599200840122e-25
-0.4830120714374999	3.183141417765735e-25
-0.4829510362812499	4.093083517590477e-25
-0.4828900011249999	4.991801150994688e-25
-0.4828289659687499	5.876701465499604e-25
-0.4827679308124999	6.745235582566464e-25
-0.4827068956562499	7.594893730625834e-25
-0.4826458604999999	8.42322387742612e-25
-0.4825848253437499	9.227835411734576e-25
-0.4825237901874999	1.0006400814027096e-24
-0.4824627550312499	1.0756671666906091e-24
-0.4824017198749999	1.1476478390995218e-24
-0.4823406847187499	1.2163737027626365e-24
-0.4822796495624999	1.2816460693903461e-24
-0.4822186144062499	1.3432758967775311e-24
-0.4821575792499999	1.401084632077006e-24
-0.4820965440937499	1.4549048564726929e-24
-0.4820355089374999	1.5045804555955604e-24
-0.4819744737812499	1.5499674436294898e-24
-0.4819134386249999	1.5909340141888512e-24
-0.4818524034687499	1.6273612935386384e-24
-0.4817913683124999	1.6591434113026493e-24
-0.4817303331562499	1.6861878763796846e-24
-0.4816692979999999	1.7084161065962217e-24
-0.4816082628437499	1.725763129138808e-24
-0.4815472276874999	1.7381783990364186e-24
-0.4814861925312499	1.745625505124464e-24
-0.4814251573749999	1.748082395404882e-24
-0.4813641222187499	1.7455416148681294e-24
-0.4813030870624999	1.7380100636267504e-24
-0.4812420519062499	1.7255092074358096e-24
-0.4811810167499999	1.7080749093261914e-24
-0.4811199815937499	1.6857573365391467e-24
-0.4810589464374999	1.658620883038831e-24
-0.4809979112812499	1.6267439164910703e-24
-0.4809368761249999	1.5902185877930124e-24
-0.4808758409687499	1.549150603266949e-24
-0.4808148058124999	1.5036588260142692e-24
-0.4807537706562499	1.4538750680886542e-24
-0.4806927354999999	1.3999436041529402e-24
-0.4806317003437499	1.3420207816149752e-24
-0.4805706651874999	1.2802746480693774e-24
-0.4805096300312499	1.2148843007011946e-24
-0.4804485948749999	1.146039598437407e-24
-0.4803875597187499	1.0739403607714889e-24
-0.4803265245624999	9.987960229023272e-25
-0.4802654894062499	9.208249078126432e-25
-0.4802044542499999	8.402534269955521e-25
-0.4801434190937499	7.573160214156565e-25
-0.4800823839374999	6.722535758972167e-25
-0.4800213487812499	5.85313474650821e-25
-0.4799603136249999	4.967488123240445e-25
-0.4798992784687499	4.068169070079098e-25
-0.4798382433124999	3.157796506952604e-25
-0.4797772081562499	2.239020468699398e-25
-0.4797161729999999	1.31451339657133e-25
-0.4796551378437499	3.8696842805207167e-26
-0.4795941026874999	-5.409121744202054e-26
-0.4795330675312499	-1.4664284755577095e-25
-0.4794720323749999	-2.38688271103007e-25
-0.4794109972187499	-3.2995915753610506e-25
-0.4793499620624999	-4.201898725016401e-25
-0.4792889269062499	-5.09117130579839e-25
-0.4792278917499999	-5.964816839734164e-25
-0.4791668565937499	-6.820290864642419e-25
-0.4791058214374999	-7.655096285738625e-25
-0.4790447862812499	-8.466798621271975e-25
-0.4789837511249999	-9.253031906072552e-25
-0.4789227159687499	-1.0011500815023056e-24
-0.4788616808124999	-1.0739993010362187e-24
-0.4788006456562499	-1.143638372676451e-24
-0.4787396104999999	-1.2098639508090768e-24
-0.4786785753437499	-1.272482892045264e-24
-0.4786175401874999	-1.3313123858232148e-24
-0.4785565050312499	-1.3861807081676626e-24
-0.4784954698749999	-1.4369278753701504e-24
-0.4784344347187499	-1.4834056009843342e-24
-0.4783733995624999	-1.5254783845036626e-24
-0.4783123644062499	-1.5630234889961784e-24
-0.4782513292499999	-1.5959312996360131e-24
-0.4781902940937499	-1.6241060088916591e-24
-0.4781292589374999	-1.647465428443964e-24
-0.4780682237812499	-1.6659416028235513e-24
-0.4780071886249999	-1.679480853883625e-24
-0.4779461534687499	-1.6880439239632463e-24
-0.4778851183124999	-1.691606215278651e-24
-0.4778240831562499	-1.6901577203422642e-24
-0.4777630479999999	-1.683703182772748e-24
-0.4777020128437499	-1.672262021665994e-24
-0.4776409776874999	-1.655868293927492e-24
-0.4775799425312499	-1.634570599652019e-24
-0.4775189073749999	-1.608431972632165e-24
-0.4774578722187499	-1.57752965546722e-24
-0.4773968370624999	-1.5419548819167385e-24
-0.4773358019062499	-1.501812743594683e-24
-0.4772747667499999	-1.4572215927881478e-24
-0.4772137315937499	-1.408313064994815e-24
-0.4771526964374999	-1.3552314658571357e-24
-0.4770916612812499	-1.2981332860556042e-24
-0.4770306261249999	-1.237187117002476e-24
-0.4769695909687499	-1.1725726584930994e-24
-0.4769085558124999	-1.1044806242782226e-24
-0.4768475206562499	-1.0331119359921476e-24
-0.4767864854999999	-9.586772215024159e-25
-0.4767254503437499	-8.813962361528776e-25
-0.4766644151874999	-8.01497048397878e-25
-0.4766033800312499	-7.192158139785101e-25
-0.4765423448749999	-6.347953234899479e-25
-0.4764813097187499	-5.484850736690273e-25
-0.4764202745624999	-4.605403028330598e-25
-0.4763592394062499	-3.712206130896391e-25
-0.4762982042499999	-2.807903438326795e-25
-0.4762371690937499	-1.8951698653026284e-25
-0.4761761339374999	-9.767033767316632e-26
-0.4761150987812499	-5.522466832966433e-27
-0.4760540636249999	8.665394534777004e-26
-0.4759930284687499	1.7858599682223061e-25
-0.4759319933124999	2.7000103037302045e-25
-0.4758709581562499	3.6062841579409295e-25
-0.4758099229999999	4.5019927217773685e-25
-0.4757488878437499	5.38447775601236e-25
-0.4756878526874999	6.251122093809584e-25
-0.4756268175312499	7.099350685937477e-25
-0.4755657823749999	7.926643041535091e-25
-0.4755047472187499	8.73053996760336e-25
-0.4754437120624999	9.508650734365145e-25
-0.4753826769062499	1.0258655696403891e-24
-0.4753216417499999	1.0978323321732836e-24
-0.4752606065937499	1.1665506215131253e-24
-0.4751995714374999	1.231815132605848e-24
-0.4751385362812499	1.2934311942608546e-24
-0.4750775011249999	1.3512141041176492e-24
-0.4750164659687499	1.4049909351880698e-24
-0.4749554308124999	1.4546002617045585e-24
-0.4748943956562499	1.4998928563627812e-24
-0.4748333604999999	1.5407323672526623e-24
-0.4747723253437499	1.5769952382720553e-24
-0.4747112901874999	1.608571643193522e-24
-0.4746502550312499	1.6353653433303076e-24
-0.4745892198749999	1.6572942218864564e-24
-0.4745281847187499	1.6742905807469664e-24
-0.4744671495624999	1.686301097975718e-24
-0.4744061144062499	1.6932872442721533e-24
-0.4743450792499999	1.6952253223852762e-24
-0.4742840440937499	1.692106450079316e-24
-0.4742230089374999	1.6839367391340627e-24
-0.4741619737812499	1.670737213857033e-24
-0.4741009386249999	1.6525437405285577e-24
-0.4740399034687499	1.6294069706836914e-24
-0.4739788683124999	1.601392192757594e-24
-0.4739178331562499	1.5685791313802714e-24
-0.4738567979999999	1.5310616980723234e-24
-0.4737957628437499	1.4889478219836886e-24
-0.4737347276874999	1.4423590127186288e-24
-0.4736736925312499	1.3914300827887657e-24
-0.4736126573749999	1.3363087507767465e-24
-0.4735516222187499	1.2771551915619761e-24
-0.4734905870624999	1.2141416151241741e-24
-0.4734295519062499	1.1474516459753347e-24
-0.4733685167499999	1.0772800548168194e-24
-0.4733074815937499	1.00383178379073e-24
-0.4732464464374999	9.273217313495026e-25
-0.4731854112812499	8.479740285742186e-25
-0.4731243761249999	7.660209614994357e-25
-0.4730633409687499	6.81703248814146e-25
-0.4730023058124999	5.95268142688601e-25
-0.4729412706562499	5.069695868326522e-25
-0.4728802354999999	4.170674281786834e-25
-0.4728192003437499	3.2582567823339077e-25
-0.4727581651874999	2.335133300955642e-25
-0.4726971300312499	1.4040215054398e-25
-0.4726360948749999	4.6766431667733714e-26
-0.4725750597187499	-4.7117382493616137e-26
-0.4725140245624999	-1.4097242117515533e-25
-0.4724529894062499	-2.3452152512893636e-25
-0.4723919542499999	-3.274882173483826e-25
-0.4723309190937499	-4.195976089650876e-25
-0.4722698839374999	-5.105773455370107e-25
-0.4722088487812499	-6.001579338754502e-25
-0.4721478136249999	-6.880740907565557e-25
-0.4720867784687499	-7.7406519941767105e-25
-0.4720257433124999	-8.578760252858125e-25
-0.4719647081562499	-9.39258049932405e-25
-0.4719036729999999	-1.0179691715178523e-24
-0.4718426378437499	-1.0937754931884531e-24
-0.4717816026874999	-1.1664514835712375e-24
