Time	Frequency
-0.5000494511562437	1.1892267544691003e-24
-0.49998841599999366	1.1661281994666512e-24
-0.49992738084374366	1.138484515458291e-24
-0.49986634568749366	1.1064069460132678e-24
-0.49980531053124366	1.0700245937605262e-24
-0.49974427537499366	1.0294839936947613e-24
-0.49968324021874366	9.849483250694877e-25
-0.49962220506249366	9.365969658470203e-25
-0.49956116990624366	8.846246685237287e-25
-0.49950013474999366	8.29240732969625e-25
-0.49943909959374366	7.706683699527335e-25
-0.49937806443749366	7.091435217303547e-25
-0.49931702928124366	6.449140985457198e-25
-0.49925599412499366	5.782390292618243e-25
-0.49919495896874366	5.093870203203875e-25
-0.49913392381249366	4.38635569770664e-25
-0.49907288865624366	3.662699933295588e-25
-0.49901185349999366	2.9258199534668925e-25
-0.49895081834374366	2.1786871122180794e-25
-0.49888978318749366	1.4243148357605357e-25
-0.49882874803124366	6.657432869294605e-26
-0.49876771287499366	-9.396566756244197e-27
-0.49870667771874366	-8.517494315057965e-26
-0.49864564256249366	-1.6045529938808719e-25
-0.49858460740624366	-2.349337400124944e-25
-0.49852357224999366	-3.0831009671599904e-25
-0.49846253709374366	-3.8028835044042365e-25
-0.49840150193749366	-4.50578286326213e-25
-0.49834046678124366	-5.188964449138815e-25
-0.49827943162499366	-5.849672596584689e-25
-0.49821839646874366	-6.485245635085068e-25
-0.49815736131249366	-7.0931206074173675e-25
-0.49809632615624366	-7.67084779902703e-25
-0.49803529099999366	-8.216100976382054e-25
-0.49797425584374366	-8.72668401439829e-25
-0.49791322068749366	-9.20054169634278e-25
-0.49785218553124366	-9.635769009447514e-25
-0.49779115037499366	-1.0030616260108622e-24
-0.49773011521874366	-1.0383498652650391e-24
-0.49766908006249366	-1.0693001651638293e-24
-0.49760804490624366	-1.0957886508634498e-24
-0.49754700974999366	-1.1177096934152574e-24
-0.49748597459374366	-1.134976092078294e-24
-0.49742493943749366	-1.1475196963964771e-24
-0.49736390428124366	-1.1552915180687944e-24
-0.49730286912499366	-1.1582619538026447e-24
-0.49724183396874366	-1.1564210377536106e-24
-0.49718079881249366	-1.1497783243277327e-24
-0.49711976365624366	-1.1383629430152332e-24
-0.49705872849999366	-1.1222235119925077e-24
-0.49699769334374366	-1.101427871255641e-24
-0.49693665818749366	-1.0760628623885075e-24
-0.49687562303124366	-1.046233993860199e-24
-0.49681458787499366	-1.0120649782110058e-24
-0.49675355271874366	-9.7369725513783e-25
-0.49669251756249366	-9.31289424705278e-25
-0.49663148240624366	-8.850166638841154e-25
-0.49657044724999366	-8.350698350282446e-25
-0.49650941209374366	-7.816549744763118e-25
-0.49644837693749366	-7.249923369357314e-25
-0.49638734178124366	-6.653152723617089e-25
-0.49632630662499366	-6.028698752540127e-25
-0.49626527146874366	-5.379133129084085e-25
-0.49620423631249366	-4.707131274735885e-25
-0.49614320115624366	-4.0154642050813366e-25
-0.49608216599999366	-3.306978982164551e-25
-0.49602113084374366	-2.5845970457007043e-25
-0.49596009568749366	-1.8512958069469635e-25
-0.49589906053124366	-1.110096680910253e-25
-0.49583802537499366	-3.640588046522664e-26
-0.49577699021874366	3.837422235706758e-26
-0.49571595506249366	1.130220009514226e-25
-0.49565491990624366	1.872291937862783e-25
-0.49559388474999366	2.6068937651113096e-25
-0.49553284959374366	3.3309888375163896e-25
-0.49547181443749366	4.041583302048875e-25
-0.49541077928124366	4.735736677123021e-25
-0.49534974412499366	5.410573676489142e-25
-0.49528870896874366	6.063297961452502e-25
-0.49522767381249366	6.691201615938668e-25
-0.49516663865624366	7.29167571618299e-25
-0.49510560349999366	7.862225007929025e-25
-0.49504456834374366	8.400472715684345e-25
-0.49498353318749366	8.90417303171335e-25
-0.49492249803124366	9.371223264439752e-25
-0.49486146287499366	9.799665252756229e-25
-0.49480042771874366	1.0187700202246535e-24
-0.49473939256249366	1.053369424183867e-24
-0.49467835740624366	1.0836181581726927e-24
-0.49461732224999366	1.1093876432734374e-24
-0.49455628709374366	1.1305674342125301e-24
-0.49449525193749366	1.1470657106695029e-24
-0.49443421678124366	1.1588099009369476e-24
-0.49437318162499366	1.165746733467236e-24
-0.49431214646874366	1.167842565359838e-24
-0.49425111131249366	1.1650835834422036e-24
-0.49419007615624366	1.1574757824585574e-24
-0.49412904099999366	1.1450449878319656e-24
-0.49406800584374366	1.1278367868969819e-24
-0.49400697068749366	1.1059163304944135e-24
-0.49394593553124366	1.0793680441279923e-24
-0.49388490037499366	1.0482953961759932e-24
-0.49382386521874366	1.012820384345408e-24
-0.49376283006249366	9.730830414973978e-25
-0.49370179490624366	9.292410720092428e-25
-0.49364075974999366	8.814688825301284e-25
-0.49357972459374366	8.299571672036104e-25
-0.49351868943749366	7.749121252574931e-25
-0.49345765428124366	7.165542704243215e-25
-0.49339661912499366	6.551181602118354e-25
-0.49333558396874366	5.908508636027828e-25
-0.49327454881249366	5.240111455150976e-25
-0.49321351365624366	4.548687966727994e-25
-0.49315247849999366	3.837028367976475e-25
-0.49309144334374366	3.1080093852917183e-25
-0.49303040818749366	2.364581098503158e-25
-0.49296937303124366	1.6097532927042434e-25
-0.49290833787499366	8.46585577845315e-26
-0.49284730271874366	7.817363224766192e-27
-0.49278626756249366	-6.92363762169595e-26
-0.49272523240624366	-1.461896129037049e-25
-0.49266419724999366	-2.227294695970201e-25
-0.49260316209374366	-2.985446701028899e-25
-0.49254212693749366	-3.7332645458220464e-25
-0.49248109178124366	-4.467702079113615e-25
-0.49242005662499366	-5.185765493783033e-25
-0.49235902146874366	-5.88452423211788e-25
-0.49229798631249366	-6.561126337660879e-25
-0.49223695115624366	-7.21280704702967e-25
-0.49217591599999366	-7.836900743888701e-25
-0.49211488084374366	-8.430853650700078e-25
-0.49205384568749366	-8.992233011137857e-25
-0.49199281053124366	-9.518735811133588e-25
-0.49193177537499366	-1.0008200741121154e-24
-0.49187074021874366	-1.0458616637852693e-24
-0.49180970506249366	-1.0868128425689176e-24
-0.49174866990624366	-1.1235047335570958e-24
-0.49168763474999366	-1.1557858049952206e-24
-0.49162659959374366	-1.1835222083751766e-24
-0.49156556443749366	-1.2065986398289514e-24
-0.49150452928124366	-1.224918750165871e-24
-0.49144349412499366	-1.238405368364837e-24
-0.49138245896874366	-1.2470010933981638e-24
-0.49132142381249366	-1.2506683450223897e-24
-0.49126038865624366	-1.2493896105358898e-24
-0.49119935349999366	-1.2431675296821529e-24
-0.49113831834374366	-1.232024829543905e-24
-0.49107728318749366	-1.2160043429456438e-24
-0.49101624803124366	-1.195168750139491e-24
-0.49095521287499366	-1.1696003863054566e-24
-0.49089417771874366	-1.1394009209123977e-24
-0.49083314256249366	-1.1046908578939492e-24
-0.49077210740624366	-1.0656092589172423e-24
-0.49071107224999366	-1.0223129243413076e-24
-0.49065003709374366	-9.749758870509648e-25
-0.49058900193749366	-9.23788914529469e-25
-0.49052796678124366	-8.689582058373746e-25
-0.49046693162499366	-8.107051413313502e-25
-0.49040589646874366	-7.492650818577463e-25
-0.49034486131249366	-6.848862886594089e-25
-0.49028382615624366	-6.178293460074576e-25
-0.49022279099999366	-5.483655968184307e-25
-0.49016175584374366	-4.76776415069995e-25
-0.49010072068749366	-4.0335191938828265e-25
-0.49003968553124366	-3.283896678535529e-25
-0.48997865037499366	-2.5219376403582664e-25
-0.48991761521874366	-1.7507322799534504e-25
-0.48985658006249366	-9.734100510612385e-26
-0.48979554490624366	-1.931269041217611e-26
-0.48973450974999366	5.869506466062305e-26
-0.48967347459374366	1.3636540483764113e-25
-0.48961243943749366	2.13382923778436e-25
-0.48955140428124366	2.8943484869853084e-25
-0.48949036912499366	3.6421213967949126e-25
-0.48942933396874366	4.374111287594434e-25
-0.48936829881249366	5.087344888951078e-25
-0.48930726365624366	5.778923880786833e-25
-0.48924622849999366	6.446040197768582e-25
-0.48918519334374366	7.085984992941079e-25
-0.48912415818749366	7.696158235901882e-25
-0.48906312303124366	8.274085325975091e-25
-0.48900208787499366	8.817420634055573e-25
-0.48894105271874366	9.323959699975577e-25
-0.48888001756249366	9.791651939824737e-25
-0.48881898240624366	1.0218601873830746e-24
-0.48875794724999366	1.0603082960564791e-24
-0.48869691209374366	1.094354357259966e-24
-0.48863587693749366	1.1238610044982954e-24
-0.48857484178124366	1.1487096444675285e-24
-0.48851380662499366	1.1688008442471732e-24
-0.48845277146874366	1.1840545763978755e-24
-0.48839173631249366	1.1944107127793815e-24
-0.48833070115624366	1.1998292891028733e-24
-0.48826966599999366	1.2002905791277039e-24
-0.48820863084374366	1.1957952364582223e-24
-0.48814759568749366	1.1863643140509029e-24
-0.48808656053124366	1.1720391550828496e-24
-0.48802552537499366	1.1528812403999615e-24
-0.48796449021874366	1.128971936843276e-24
-0.48790345506249366	1.1004121798854186e-24
-0.48784241990624366	1.0673220877913219e-24
-0.48778138474999366	1.0298403684287144e-24
-0.48772034959374366	9.881239352246403e-25
-0.48765931443749366	9.423471177648401e-25
-0.48759827928124366	8.92700918559453e-25
-0.48753724412499366	8.393924900668537e-25
-0.48747620896874366	7.826439718475634e-25
-0.48741517381249366	7.226917200075537e-25
-0.48735413865624366	6.597854148468137e-25
-0.48729310349999366	5.94186915067373e-25
-0.48723206834374366	5.261692226014222e-25
-0.48717103318749366	4.560153412294596e-25
-0.48710999803124366	3.8401720844527937e-25
-0.48704896287499366	3.104744312706439e-25
-0.48698792771874366	2.3569285506035287e-25
-0.48692689256249366	1.5998377437967877e-25
-0.48686585740624366	8.366228816383392e-26
-0.48680482224999366	7.045817615846696e-27
-0.48674378709374366	-6.95464761495035e-26
-0.48668275193749366	-1.4579577271926396e-25
-0.48662171678124366	-2.2138462847699555e-25
-0.48656068162499366	-2.9599800457544786e-25
-0.48649964646874366	-3.6932504461086013e-25
-0.48643861131249366	-4.410601404690349e-25
-0.48637757615624366	-5.109040404986995e-25
-0.48631654099999366	-5.785653295126174e-25
-0.48625550584374366	-6.437616627400153e-25
-0.48619447068749366	-7.06220599154398e-25
-0.48613343553124366	-7.656811020570539e-25
-0.48607240037499366	-8.218945073364218e-25
-0.48601136521874366	-8.746254014407962e-25
-0.48595033006249366	-9.236527660520548e-25
-0.48588929490624366	-9.687709471425321e-25
-0.48582825974999366	-1.0097903533968495e-24
-0.48576722459374366	-1.0465382150400888e-24
-0.48570618943749366	-1.0788595867227304e-24
-0.48564515428124366	-1.1066177620428795e-24
-0.48558411912499366	-1.1296947979504277e-24
-0.48552308396874366	-1.147992226902723e-24
-0.48546204881249366	-1.1614313579766875e-24
-0.48540101365624366	-1.1699535464342243e-24
-0.48533997849999366	-1.1735205697131407e-24
-0.48527894334374366	-1.172114755098516e-24
-0.48521790818749366	-1.1657389993679813e-24
-0.48515687303124366	-1.1544168519887833e-24
-0.48509583787499366	-1.13819240260167e-24
-0.48503480271874366	-1.117130073663612e-24
-0.48497376756249366	-1.0913144202617544e-24
-0.48491273240624366	-1.0608497383482044e-24
-0.48485169724999366	-1.025859695983521e-24
-0.48479066209374366	-9.86486775489673e-25
-0.48472962693749366	-9.428917362251743e-25
-0.48466859178124366	-8.952529609848183e-25
-0.48460755662499366	-8.437656682914844e-25
-0.48454652146874366	-7.886412187020563e-25
-0.48448548631249366	-7.301061003455862e-25
-0.48442445115624366	-6.684012042819285e-25
-0.48436341599999366	-6.037806060790833e-25
-0.48430238084374366	-5.365106189570103e-25
-0.48424134568749366	-4.668689236587116e-25
-0.48418031053124366	-3.951429154805482e-25
-0.48411927537499366	-3.216289496960003e-25
-0.48405824021874366	-2.4663111321431315e-25
-0.48399720506249366	-1.7045959673832549e-25
-0.48393616990624366	-9.34298203210464e-26
-0.48387513474999366	-1.586096533003172e-26
-0.48381409959374366	6.192545036718655e-26
-0.48375306443749366	1.396066505556049e-25
-0.48369202928124366	2.1686022487954505e-25
-0.48363099412499366	2.933651913584491e-25
-0.48356995896874366	3.688035320278986e-25
-0.48350892381249366	4.428615083054419e-25
-0.48344788865624366	5.152306767500565e-25
-0.48338685349999366	5.856095842315403e-25
-0.48332581834374366	6.537047574157644e-25
-0.48326478318749366	7.19231981143351e-25
-0.48320374803124366	7.819174877031119e-25
-0.48314271287499366	8.414990870691787e-25
-0.48308167771874366	8.977273318607399e-25
-0.48302064256249366	9.503664506987881e-25
-0.48295960740624366	9.991953340325897e-25
-0.48289857224999366	1.0440086175341378e-24
-0.48283753709374366	1.0846174016448875e-24
-0.48277650193749366	1.1208499478814808e-24
-0.48271546678124366	1.1525527129576776e-24
-0.48265443162499366	1.1795907169933897e-24
-0.48259339646874366	1.2018481679787544e-24
-0.48253236131249366	1.2192290833325434e-24
-0.48247132615624366	1.2316575567190067e-24
-0.48241029099999366	1.2390781417907096e-24
-0.48234925584374366	1.2414560908428223e-24
-0.48228822068749366	1.2387775145133423e-24
-0.48222718553124366	1.2310494448777924e-24
-0.48216615037499366	1.2182998180730487e-24
-0.48210511521874366	1.2005773592810177e-24
-0.48204408006249366	1.1779514358836424e-24
-0.48198304490624366	1.1505117348974224e-24
-0.48192200974999366	1.1183678900449553e-24
-0.48186097459374366	1.0816491541368643e-24
-0.48179993943749366	1.0405036810979902e-24
-0.48173890428124366	9.950980929451527e-25
-0.48167786912499366	9.456167711406246e-25
-0.48161683396874366	8.922609433211205e-25
-0.48155579881249366	8.35248137477884e-25
-0.48149476365624366	7.748109898719025e-25
-0.48143372849999366	7.111965301664498e-25
-0.48137269334374366	6.446651131250352e-25
-0.48131165818749366	5.7548903118202295e-25
-0.48125062303124366	5.0395199348668e-25
-0.48118958787499366	4.3034755449597485e-25
-0.48112855271874366	3.5497762752702224e-25
-0.48106751756249366	2.7815205354509654e-25
-0.48100648240624366	2.0018669139401993e-25
-0.48094544724999366	1.2140191242637233e-25
-0.48088441209374366	4.2122168531121757e-26
-0.48082337693749366	-3.7326204160884436e-26
-0.48076234178124366	-1.1661607335283563e-25
-0.48070130662499366	-1.9542062971143386e-25
-0.48064027146874366	-2.734151419821821e-25
-0.48057923631249366	-3.502778970272022e-25
-0.48051820115624366	-4.256919672383482e-25
-0.48045716599999366	-4.993461658818353e-25
-0.48039613084374366	-5.709364427538509e-25
-0.48033509568749366	-6.401673938310792e-25
-0.48027406053124366	-7.0675308979176435e-25
-0.48021302537499366	-7.70418492653926e-25
-0.48015199021874366	-8.309007150313066e-25
-0.48009095506249366	-8.879498771506169e-25
-0.48002991990624366	-9.413302062899885e-25
-0.47996888474999366	-9.90821211897854e-25
-0.47990784959374366	-1.0362183906224774e-24
-0.47984681443749366	-1.077334121585166e-24
-0.47978577928124366	-1.1139985807238755e-24
-0.47972474412499366	-1.1460603681016576e-24
-0.47966370896874366	-1.1733870670523145e-24
-0.47960267381249366	-1.1958659287807747e-24
-0.47954163865624366	-1.2134043529609668e-24
-0.47948060349999366	-1.2259301866447195e-24
-0.47941956834374366	-1.2333920464081228e-24
-0.47935853318749366	-1.2357596457217902e-24
-0.47929749803124366	-1.2330238486540533e-24
-0.47923646287499366	-1.2251966732900714e-24
-0.47917542771874366	-1.2123113769023795e-24
-0.47911439256249366	-1.19442220275423e-24
-0.47905335740624366	-1.1716042659526798e-24
-0.47899232224999366	-1.1439531557434513e-24
-0.47893128709374366	-1.1115845889873445e-24
-0.47887025193749366	-1.0746340211735131e-24
-0.47880921678124366	-1.0332558789248773e-24
-0.47874818162499366	-9.87623143422291e-25
-0.47868714646874366	-9.3792654670655e-25
-0.47862611131249366	-8.84373731773613e-25
-0.47856507615624366	-8.271884958079841e-25
-0.47850404099999366	-7.666097826877051e-25
-0.47844300584374366	-7.028907516902883e-25
-0.47838197068749366	-6.36297688086094e-25
-0.47832093553124366	-5.671089430110734e-25
-0.47825990037499366	-4.956136611256014e-25
-0.47819886521874366	-4.221107577890877e-25
-0.47813783006249366	-3.469075920199817e-25
-0.47807679490624366	-2.7031852948761177e-25
-0.47801575974999366	-1.9266398916914187e-25
-0.47795472459374366	-1.142687510026125e-25
-0.47789368943749366	-3.546077826190169e-26
-0.47783265428124366	4.3430040248422097e-26
-0.47777161912499366	1.22073674497006e-25
-0.47771058396874366	2.0014083454073256e-25
-0.47764954881249366	2.773044871612038e-25
-0.47758851365624366	3.532417056192802e-25
-0.47752747849999366	4.276342564285858e-25
-0.47746644334374366	5.001702682142385e-25
-0.47740540818749366	5.7054597866363e-25
-0.47734437303124366	6.384661461517245e-25
-0.47728333787499366	7.036458551943923e-25
-0.47722230271874366	7.658118395754146e-25
-0.47716126756249366	8.247030282056958e-25
-0.47710023240624366	8.800721832906996e-25
-0.47703919724999366	9.316868130346272e-25
-0.47697816209374366	9.793298727764518e-25
-0.47691712693749366	1.0228011089367095e-24
-0.47685609178124366	1.0619175998788086e-24
-0.47679505662499366	1.0965145808067163e-24
-0.47673402146874366	1.1264462779573433e-24
-0.47667298631249366	1.1515863468123276e-24
-0.47661195115624366	1.1718285580290565e-24
-0.47655091599999366	1.1870871093809226e-24
-0.47648988084374366	1.1972971343334298e-24
-0.47642884568749366	1.2024149148959099e-24
-0.47636781053124366	1.2024180290590357e-24
-0.47630677537499366	1.1973055489085323e-24
-0.47624574021874366	1.1870979910493771e-24
-0.47618470506249366	1.1718372680041172e-24
-0.47612366990624366	1.1515864867619235e-24
-0.47606263474999366	1.1264297558563555e-24
-0.47600159959374366	1.096471774169574e-24
-0.47594056443749366	1.0618374475355523e-24
-0.47587952928124366	1.0226713811362255e-24
-0.47581849412499366	9.791371940788522e-25
-0.47575745896874366	9.314170027259942e-25
-0.47569642381249366	8.797105408992924e-25
-0.47563538865624366	8.242342736360601e-25
-0.47557435349999366	7.652207353873293e-25
-0.47551331834374366	7.0291734982148675e-25
-0.47545228318749366	6.375854002525202e-25
-0.47539124803124366	5.694990851100921e-25
-0.47533021287499366	4.989443106743788e-25
-0.47526917771874366	4.262174290741611e-25
-0.47520814256249366	3.5162395311971833e-25
-0.47514710740624366	2.754776289216332e-25
-0.47508607224999366	1.9809868939068324e-25
-0.47502503709374366	1.1981264840669937e-25
-0.47496400193749366	4.0949146410977553e-26
-0.47490296678124366	-3.8159717213732845e-26
-0.47484193162499366	-1.1718051115179318e-25
-0.47478089646874366	-1.95780333172157e-25
-0.47471986131249366	-2.7362749451222204e-25
-0.47465882615624366	-3.5039341717065164e-25
-0.47459779099999366	-4.257542629960451e-25
-0.47453675584374366	-4.993913717569329e-25
-0.47447572068749366	-5.709935894775239e-25
-0.47441468553124366	-6.402579924042482e-25
-0.47435365037499366	-7.068913279486022e-25
-0.47429261521874366	-7.706113969708582e-25
-0.47423158006249366	-8.311478124071806e-25
-0.47417054490624366	-8.882437944501848e-25
-0.47410950974999366	-9.416566298557903e-25
-0.47404847459374366	-9.911590357608017e-25
-0.47398743943749366	-1.03654015388431e-24
-0.47392640428124366	-1.0776061464846036e-24
-0.47386536912499366	-1.1141814372216463e-24
-0.47380433396874366	-1.1461090758947058e-24
-0.47374329881249366	-1.1732516141366752e-24
-0.47368226365624366	-1.1954917451344646e-24
-0.47362122849999366	-1.2127325647789063e-24
-0.47356019334374366	-1.2248982405377573e-24
-0.47349915818749366	-1.231934245137037e-24
-0.47343812303124366	-1.2338075227525653e-24
-0.47337708787499366	-1.2305067804709034e-24
-0.47331605271874366	-1.2220424635931192e-24
-0.47325501756249366	-1.2084467094833071e-24
-0.47319398240624366	-1.1897732873984848e-24
-0.47313294724999366	-1.166097351569305e-24
-0.47307191209374366	-1.137515106112875e-24
-0.47301087693749366	-1.1041434800802504e-24
-0.47294984178124366	-1.066119592367703e-24
-0.47288880662499366	-1.0236001964295614e-24
-0.47282777146874366	-9.767610694333338e-25
-0.47276673631249366	-9.25796207190692e-25
-0.47270570115624366	-8.709171034355671e-25
-0.47264466599999366	-8.1235183149337e-25
-0.47258363084374366	-7.503440704481435e-25
-0.47252259568749366	-6.851520855887387e-25
-0.47246156053124366	-6.17047784232999e-25
-0.47240052537499366	-5.4631536646649665e-25
-0.47233949021874366	-4.732501764947262e-25
