Time	Frequency
-0.5000240800312525	1.1528023320507806e-24
-0.49996304487500254	1.0924407171585531e-24
-0.49990200971875254	1.0287107937573331e-24
-0.49984097456250254	9.618003520682087e-25
-0.49977993940625254	8.919069567144677e-25
-0.49971890425000254	8.192372590728825e-25
-0.49965786909375254	7.440063699881581e-25
-0.49959683393750254	6.664373564202379e-25
-0.49953579878125254	5.867602969454795e-25
-0.49947476362500254	5.052118942720482e-25
-0.49941372846875254	4.220346383247628e-25
-0.49935269331250254	3.374759246288464e-25
-0.49929165815625254	2.517876663854597e-25
-0.49923062300000254	1.6522517014615e-25
-0.49916958784375254	7.804658225134216e-26
-0.49910855268750254	-9.487823642542233e-27
-0.49904751753125254	-9.711688431253864e-26
-0.49898648237500254	-1.8457848983628347e-25
-0.49892544721875254	-2.7161134987432826e-25
-0.49886441206250254	-3.579551370994973e-25
-0.49880337690625254	-4.433511451541717e-25
-0.49874234175000254	-5.275440745626058e-25
-0.49868130659375254	-6.102813451249465e-25
-0.49862027143750254	-6.91315064751108e-25
-0.49855923628125254	-7.7040231006923005e-25
-0.49849820112500254	-8.473055534238188e-25
-0.49843716596875254	-9.217942096184647e-25
-0.49837613081250254	-9.936443559035691e-25
-0.49831509565625254	-1.0626401879288854e-24
-0.49825406050000254	-1.1285743702342932e-24
-0.49819302534375254	-1.191248375453165e-24
-0.49813199018750254	-1.2504738431194826e-24
-0.49807095503125254	-1.306072315868228e-24
-0.49800991987500254	-1.357876301469525e-24
-0.49794888471875254	-1.4057297661938782e-24
-0.49788784956250254	-1.4494881738544289e-24
-0.49782681440625254	-1.4890196481275569e-24
-0.49776577925000254	-1.5242046103640112e-24
-0.49770474409375254	-1.5549367075843038e-24
-0.49764370893750254	-1.58112295973173e-24
-0.49758267378125254	-1.6026838274138907e-24
-0.49752163862500254	-1.6195539415143797e-24
-0.49746060346875254	-1.631681755276648e-24
-0.49739956831250254	-1.6390301648874686e-24
-0.49733853315625254	-1.641576364535065e-24
-0.49727749800000254	-1.639311957840593e-24
-0.49721646284375254	-1.6322431354432131e-24
-0.49715542768750254	-1.620390435951479e-24
-0.49709439253125254	-1.6037888964117292e-24
-0.49703335737500254	-1.5824878226734708e-24
-0.49697232221875254	-1.5565507084536927e-24
-0.49691128706250254	-1.5260550060804034e-24
-0.49685025190625254	-1.4910919687420694e-24
-0.49678921675000254	-1.4517662952738523e-24
-0.49672818159375254	-1.4081958241663573e-24
-0.49666714643750254	-1.3605113659700397e-24
-0.49660611128125254	-1.3088559505932972e-24
-0.49654507612500254	-1.2533847869712625e-24
-0.49648404096875254	-1.1942645739576166e-24
-0.49642300581250254	-1.131672966247752e-24
-0.49636197065625254	-1.0657982966155087e-24
-0.49630093550000254	-9.968386383547146e-25
-0.49623990034375254	-9.250016216500482e-25
-0.49617886518750254	-8.505034398490129e-25
-0.49611783003125254	-7.735683604397815e-25
-0.49605679487500254	-6.944281927181074e-25
-0.49599575971875254	-6.133213008548472e-25
-0.49593472456250254	-5.304920114799212e-25
-0.49587368940625254	-4.461900338425907e-25
-0.49581265425000254	-3.606694665330564e-25
-0.49575161909375254	-2.7418795213550638e-25
-0.49569058393750254	-1.870065917563814e-25
-0.49562954878125254	-9.938795715000837e-26
-0.49556851362500254	-1.1596336464943091e-26
-0.49550747846875254	7.610312323330312e-26
-0.49544644331250254	1.6344642366039265e-25
-0.49538540815625254	2.501696950682861e-25
-0.49532437300000254	3.360113135042182e-25
-0.49526333784375254	4.207125811556125e-25
-0.49520230268750254	5.04017617689903e-25
-0.49514126753125254	5.85675264314485e-25
-0.49508023237500254	6.654392174243402e-25
-0.49501919721875254	7.430686997184982e-25
-0.49495816206250254	8.183297026569057e-25
-0.49489712690625254	8.909951317718327e-25
-0.49483609175000254	9.60845856972059e-25
-0.49477505659375254	1.0276714494731499e-24
-0.49471402143750254	1.0912702788066708e-24
-0.49465298628125254	1.1514508602203045e-24
-0.49459195112500254	1.2080319710293646e-24
-0.49453091596875254	1.260843169571398e-24
-0.49446988081250254	1.3097257563620891e-24
-0.49440884565625254	1.3545327397236842e-24
-0.49434781050000254	1.3951295861590573e-24
-0.49428677534375254	1.4313946368460596e-24
-0.49422574018750254	1.4632193214756427e-24
-0.49416470503125254	1.4905086376053467e-24
-0.49410366987500254	1.513181354806947e-24
-0.49404263471875254	1.5311703531280569e-24
-0.49398159956250254	1.544422750691586e-24
-0.49392056440625254	1.552900080944679e-24
-0.49385952925000254	1.5565784962743562e-24
-0.49379849409375254	1.5554487428783402e-24
-0.49373745893750254	1.5495162294715473e-24
-0.49367642378125254	1.5388010604017429e-24
-0.49361538862500254	1.5233379136805513e-24
-0.49355435346875254	1.5031759715967593e-24
-0.49349331831250254	1.4783788090702091e-24
-0.49343228315625254	1.4490240892232707e-24
-0.49337124800000254	1.415203526719236e-24
-0.49331021284375254	1.3770224049350302e-24
-0.49324917768750254	1.3345993616679588e-24
-0.49318814253125254	1.2880661141955838e-24
-0.49312710737500254	1.237566855938945e-24
-0.49306607221875254	1.1832579926294743e-24
-0.49300503706250254	1.1253076421187236e-24
-0.49294400190625254	1.0638950614802827e-24
-0.49288296675000254	9.992100661750933e-25
-0.49282193159375254	9.314527731944173e-25
-0.49276089643750254	8.608324537097809e-25
-0.49269986128125254	7.875672911968013e-25
-0.49263882612500254	7.118838678035107e-25
-0.49257779096875254	6.340157775873776e-25
-0.49251675581250254	5.542037377022586e-25
-0.49245572065625254	4.726943482221794e-25
-0.49239468550000254	3.897394064617627e-25
-0.49233365034375254	3.055954008375196e-25
-0.49227261518750254	2.205222957205278e-25
-0.49221158003125254	1.3478321591985536e-25
-0.49215054487500254	4.8643263118595554e-26
-0.49208950971875254	-3.7631202695668387e-26
-0.49202847456250254	-1.2377307004266681e-25
-0.49196743940625254	-2.0951579217873757e-25
-0.49190640425000254	-2.945940074352841e-25
-0.49184536909375254	-3.7874392753243574e-25
-0.49178433393750254	-4.617049034329889e-25
-0.49172329878125254	-5.432197973078886e-25
-0.49166226362500254	-6.23035485203936e-25
-0.49160122846875254	-7.009044158970034e-25
-0.49154019331250254	-7.765846501816147e-25
-0.49147915815625254	-8.498408198278668e-25
-0.49141812300000254	-9.204451779877588e-25
-0.49135708784375254	-9.881777883458825e-25
-0.49129605268750254	-1.0528274472732557e-24
-0.49123501753125254	-1.1141925971888997e-24
-0.49117398237500254	-1.1720813292763166e-24
-0.49111294721875254	-1.2263124818529572e-24
-0.49105191206250254	-1.2767162196247002e-24
-0.49099087690625254	-1.3231340481817831e-24
-0.49092984175000254	-1.3654199153378606e-24
-0.49086880659375254	-1.4034402849803925e-24
-0.49080777143750254	-1.437074689134046e-24
-0.49074673628125254	-1.466216091828781e-24
-0.49068570112500254	-1.4907711497153793e-24
-0.49062466596875254	-1.5106606707410333e-24
-0.49056363081250254	-1.525819680189197e-24
-0.49050259565625254	-1.5361977328678576e-24
-0.49044156050000254	-1.5417590701039195e-24
-0.49038052534375254	-1.5424827129459872e-24
-0.49031949018750254	-1.5383625130347916e-24
-0.49025845503125254	-1.5294072585470072e-24
-0.49019741987500254	-1.5156405871736279e-24
-0.49013638471875254	-1.49710090285966e-24
-0.49007534956250254	-1.4738413962402886e-24
-0.49001431440625254	-1.4459296987952271e-24
-0.48995327925000254	-1.4134478410275663e-24
-0.48989224409375254	-1.3764919961631025e-24
-0.48983120893750254	-1.3351719982242204e-24
-0.48977017378125254	-1.2896113741132218e-24
-0.48970913862500254	-1.239946595079453e-24
-0.48964810346875254	-1.1863269112207881e-24
-0.48958706831250254	-1.128913856897734e-24
-0.48952603315625254	-1.0678805970289649e-24
-0.48946499800000254	-1.0034117693636382e-24
-0.48940396284375254	-9.357024178318732e-25
-0.48934292768750254	-8.649579042367233e-25
-0.48928189253125254	-7.913929660137692e-25
-0.48922085737500254	-7.152310973666387e-25
-0.48915982221875254	-6.367040854803972e-25
-0.48909878706250254	-5.56050915943702e-25
-0.48903775190625254	-4.735175972636758e-25
-0.48897671675000254	-3.893556717596429e-25
-0.48891568159375254	-3.0382227190853663e-25
-0.48885464643750254	-2.1717870596048444e-25
-0.48879361128125254	-1.296896978026981e-25
-0.48873257612500254	-4.162346393236044e-26
-0.48867154096875254	4.675087800945252e-26
-0.48861050581250254	1.3516212965544192e-25
-0.48854947065625254	2.233391111525215e-25
-0.48848843550000254	3.110115542602462e-25
-0.48842740034375254	3.979097166150421e-25
-0.48836636518750254	4.837668911502702e-25
-0.48830533003125254	5.6831880902670725e-25
-0.48824429487500254	6.5130514324848165e-25
-0.48818325971875254	7.324703681437797e-25
-0.48812222456250254	8.115641173552951e-25
-0.48806118940625254	8.883423070477426e-25
-0.48800015425000254	9.625677989527447e-25
-0.48793911909375254	1.0340110314521824e-24
-0.48787808393750254	1.1024508881979237e-24
-0.48781704878125254	1.1676752668042623e-24
-0.48775601362500254	1.2294817649285078e-24
-0.48769497846875254	1.2876783700939756e-24
-0.48763394331250254	1.3420838192744708e-24
-0.48757290815625254	1.39252867548392e-24
-0.48751187300000254	1.4388551034345383e-24
-0.48745083784375254	1.480918144603267e-24
-0.48738980268750254	1.518585666016603e-24
-0.48732876753125254	1.5517386977136615e-24
-0.48726773237500254	1.5802725271695496e-24
-0.48720669721875254	1.6040959587914968e-24
-0.48714566206250254	1.6231325215407418e-24
-0.48708462690625254	1.6373203227711985e-24
-0.48702359175000254	1.6466120566076634e-24
-0.48696255659375254	1.6509757037893106e-24
-0.48690152143750254	1.6503940584764184e-24
-0.48684048628125254	1.6448651341700155e-24
-0.48677945112500254	1.6344021803656275e-24
-0.48671841596875254	1.6190333995562603e-24
-0.48665738081250254	1.5988021570781267e-24
-0.48659634565625254	1.5737667039684884e-24
-0.48653531050000254	1.5439999739691155e-24
-0.48647427534375254	1.5095895493360644e-24
-0.48641324018750254	1.4706371263644088e-24
-0.48635220503125254	1.4272585171571987e-24
-0.48629116987500254	1.3795830610011577e-24
-0.48623013471875254	1.32775327165187e-24
-0.48616909956250254	1.2719246818978944e-24
-0.48610806440625254	1.2122648136029091e-24
-0.48604702925000254	1.1489532897551484e-24
-0.48598599409375254	1.082180934646577e-24
-0.48592495893750254	1.0121490795098398e-24
-0.48586392378125254	9.390694357030953e-25
-0.48580288862500254	8.63162960550543e-25
-0.48574185346875254	7.846593142232638e-25
-0.48568081831250254	7.037963973528001e-25
-0.48561978315625254	6.208193633176766e-25
-0.48555874800000254	5.359797730839262e-25
-0.48549771284375254	4.495353982890931e-25
-0.48543667768750254	3.617485717603944e-25
-0.48537564253125254	2.7288608532192902e-25
-0.48531460737500254	1.8321839127879482e-25
-0.48525357221875254	9.301768140471471e-26
-0.48519253706250254	2.558934695942156e-27
-0.48513150190625254	-8.788265802142824e-26
-0.48507046675000254	-1.7803198760934444e-25
-0.48500943159375254	-2.6761393320677573e-25
-0.48494839643750254	-3.5635599889685514e-25
-0.48488736128125254	-4.439875672526764e-25
-0.48482632612500254	-5.302414512256468e-25
-0.48476529096875254	-6.1485481563847e-25
-0.48470425581250254	-6.975695413643113e-25
-0.48464322065625254	-7.7813338994333395e-25
-0.48458218550000254	-8.563006698448975e-25
-0.48452115034375254	-9.318329254638024e-25
-0.48446011518750254	-1.0044996942338788e-24
-0.48439908003125254	-1.074079519152142e-24
-0.48433804487500254	-1.1403599231742714e-24
-0.48427700971875254	-1.2031388947487863e-24
-0.48421597456250254	-1.2622251455117002e-24
-0.48415493940625254	-1.3174383301455902e-24
-0.48409390425000254	-1.3686103618856713e-24
-0.48403286909375254	-1.415585404481762e-24
-0.48397183393750254	-1.458220436408797e-24
-0.48391079878125254	-1.4963858516787637e-24
-0.48384976362500254	-1.52996577582233e-24
-0.48378872846875254	-1.5588583661486926e-24
-0.48372769331250254	-1.5829762341061524e-24
-0.48366665815625254	-1.6022467022200917e-24
-0.48360562300000254	-1.616611949700579e-24
-0.48354458784375254	-1.626029315533858e-24
-0.48348355268750254	-1.6304713598491198e-24
-0.48342251753125254	-1.6299259660734379e-24
-0.48336148237500254	-1.6243964078294761e-24
-0.48330044721875254	-1.6139013210419487e-24
-0.48323941206250254	-1.5984746623436046e-24
-0.48317837690625254	-1.5781656109607257e-24
-0.48311734175000254	-1.5530384154092406e-24
-0.48305630659375254	-1.5231722193504761e-24
-0.48299527143750254	-1.4886607901124954e-24
-0.48293423628125254	-1.4496122630619976e-24
-0.48287320112500254	-1.4061488035219895e-24
-0.48281216596875254	-1.3584062329313226e-24
-0.48275113081250254	-1.3065336180674958e-24
-0.48269009565625254	-1.2506927878493549e-24
-0.48262906050000254	-1.191057926174119e-24
-0.48256802534375254	-1.1278148810636804e-24
-0.48250699018750254	-1.0611607496120953e-24
-0.48244595503125254	-9.91303198213541e-25
-0.48238491987500254	-9.184598165242293e-25
-0.48232388471875254	-8.428574955121719e-25
-0.48226284956250254	-7.647316566805973e-25
-0.48220181440625254	-6.843255948501097e-25
-0.48214077925000254	-6.018896825473015e-25
-0.48207974409375254	-5.176806905003228e-25
-0.48201870893750254	-4.319607382207321e-25
-0.48195767378125254	-3.449968526039656e-25
-0.48189663862500254	-2.570599713714618e-25
-0.48183560346875254	-1.684237462276316e-25
-0.48177456831250254	-7.936450786676573e-26
-0.48171353315625254	9.840266319793876e-27
-0.48165249800000254	9.891292107961647e-26
-0.48159146284375254	1.8757546461107237e-25
-0.48153042768750254	2.755517723431088e-25
-0.48146939253125254	3.625677177879349e-25
-0.48140835737500254	4.483515751234658e-25
-0.48134732221875254	5.326362056597248e-25
-0.48128628706250254	6.151585558641949e-25
-0.48122525190625254	6.95660978988853e-25
-0.48116421675000254	7.738924782997e-25
-0.48110318159375254	8.49608683255706e-25
-0.48104214643750254	9.225731531207685e-25
-0.48098111128125254	9.925579732793906e-25
-0.48092007612500254	1.0593444592379272e-24
-0.48085904096875254	1.1227238273801869e-24
-0.48079800581250254	1.182497729507373e-24
-0.48073697065625254	1.2384793231693701e-24
-0.48067593550000254	1.2904932620094344e-24
-0.48061490034375254	1.3383764819508389e-24
-0.48055386518750254	1.3819790716139444e-24
-0.48049283003125254	1.4211641071929292e-24
-0.48043179487500254	1.4558085445990305e-24
-0.48037075971875254	1.4858034733523796e-24
-0.48030972456250254	1.5110543960839985e-24
-0.48024868940625254	1.5314816428620508e-24
-0.48018765425000254	1.5470204979644872e-24
-0.48012661909375254	1.5576215928527071e-24
-0.48006558393750254	1.5632508416805082e-24
-0.48000454878125254	1.5638897095929535e-24
-0.47994351362500254	1.5595352800713009e-24
-0.47988247846875254	1.5502001337721937e-24
-0.47982144331250254	1.5359124779454241e-24
-0.47976040815625254	1.5167159988860309e-24
-0.47969937300000254	1.4926696478841165e-24
-0.47963833784375254	1.4638476828159915e-24
-0.47957730268750254	1.4303391779278017e-24
-0.47951626753125254	1.3922479155422003e-24
-0.47945523237500254	1.349692192929573e-24
-0.47939419721875254	1.3028039970072652e-24
-0.47933316206250254	1.251729216662035e-24
-0.47927212690625254	1.196626753955806e-24
-0.47921109175000254	1.1376680631860023e-24
-0.47915005659375254	1.0750369847756544e-24
-0.47908902143750254	1.0089286702988176e-24
-0.47902798628125254	9.395493990205257e-25
-0.47896695112500254	8.67115679686251e-25
-0.47890591596875254	7.918537156313341e-25
-0.47884488081250254	7.139986772453438e-25
-0.47878384565625254	6.337938503259138e-25
-0.47872281050000254	5.51490216545409e-25
-0.47866177534375254	4.673451677216594e-25
-0.47860074018750254	3.816221765108742e-25
-0.47853970503125254	2.94589797021395e-25
-0.47847866987500254	2.0652063552896962e-25
-0.47841763471875254	1.1769088901455082e-25
-0.47835659956250254	2.8379210575435035e-26
-0.47829556440625254	-6.113409758850317e-26
-0.47823452925000254	-1.50568038759363e-25
-0.47817349409375254	-2.396414630144567e-25
-0.47811245893750254	-3.2807438406406067e-25
-0.47805142378125254	-4.155887182148573e-25
-0.47799038862500254	-5.019087920318352e-25
-0.47792935346875254	-5.8676283610816e-25
-0.47786831831250254	-6.69883370446752e-25
-0.47780728315625254	-7.510080571012988e-25
-0.47774624800000254	-8.298808556763317e-25
-0.47768521284375254	-9.062525135635996e-25
-0.47762417768750254	-9.798813633918223e-25
-0.47756314253125254	-1.0505343476831599e-24
-0.47750210737500254	-1.1179874183279178e-24
-0.47744107221875254	-1.1820264094480818e-24
-0.47738003706250254	-1.2424478468813399e-24
-0.47731900190625254	-1.299059184468125e-24
-0.47725796675000254	-1.3516799157872591e-24
-0.47719693159375254	-1.400141753024823e-24
-0.47713589643750254	-1.444289264058304e-24
-0.47707486128125254	-1.4839806083600228e-24
-0.47701382612500254	-1.5190875077494658e-24
-0.47695279096875254	-1.54949617705539e-24
-0.47689175581250254	-1.5751073283174717e-24
-0.47683072065625254	-1.595836533120863e-24
-0.47676968550000254	-1.6116147453328087e-24
-0.47670865034375254	-1.6223882072598452e-24
-0.47664761518750254	-1.6281187958737808e-24
-0.47658658003125254	-1.6287841618381885e-24
-0.47652554487500254	-1.6243777443510785e-24
-0.47646450971875254	-1.6149087946156696e-24
-0.47640347456250254	-1.6004024516058777e-24
-0.47634243940625254	-1.580899563410322e-24
-0.47628140425000254	-1.5564566242552774e-24
-0.47622036909375254	-1.5271456157900992e-24
-0.47615933393750254	-1.4930537442451993e-24
-0.47609829878125254	-1.454283243069421e-24
-0.47603726362500254	-1.4109509837201697e-24
-0.47597622846875254	-1.3631882416394702e-24
-0.47591519331250254	-1.311140074811566e-24
-0.47585415815625254	-1.2549651647107488e-24
-0.47579312300000254	-1.1948351424737397e-24
-0.47573208784375254	-1.1309339823385082e-24
-0.47567105268750254	-1.063457802610345e-24
-0.47561001753125254	-9.92613677231773e-25
-0.47554898237500254	-9.18619692027548e-25
-0.47548794721875254	-8.417036054203727e-25
-0.47542691206250254	-7.621024977107698e-25
-0.47536587690625254	-6.800622774342862e-25
-0.47530484175000254	-5.958360737329094e-25
-0.47524380659375254	-5.09684561887456e-25
-0.47518277143750254	-4.21874166793383e-25
-0.47512173628125254	-3.326768473282863e-25
-0.47506070112500254	-2.4236910724517775e-25
-0.47499966596875254	-1.5123076617290826e-25
-0.47493863081250254	-5.954491986969796e-26
-0.47487759565625254	3.240403861252585e-26
-0.47481656050000254	1.2433034541886971e-25
-0.47475552534375254	2.159480901361117e-25
-0.47469449018750254	3.069726929304731e-25
-0.47463345503125254	3.971206142223716e-25
-0.47457241987500254	4.861112571701944e-25
-0.47451138471875254	5.736675321234925e-25
-0.47445034956250254	6.595164180194538e-25
-0.47438931440625254	7.433903951181454e-25
-0.47432827925000254	8.250276493170062e-25
-0.47426724409375254	9.041735250744025e-25
-0.47420620893750254	9.805807835427448e-25
-0.47414517378125254	1.05401068279615e-24
-0.47408413862500254	1.1242338545081008e-24
-0.47402310346875254	1.1910304411451496e-24
-0.47396206831250254	1.2541915447066847e-24
-0.47390103315625254	1.3135194107900004e-24
-0.47383999800000254	1.368828055584546e-24
-0.47377896284375254	1.419944103714869e-24
-0.47371792768750254	1.466707216449114e-24
-0.47365689253125254	1.508970429178695e-24
-0.47359585737500254	1.5466009223642391e-24
-0.47353482221875254	1.5794803099721492e-24
-0.47347378706250254	1.6075048122985158e-24
-0.47341275190625254	1.6305860395283642e-24
-0.47335171675000254	1.6486508821680224e-24
-0.47329068159375254	1.6616418226208672e-24
-0.47322964643750254	1.6695173579160513e-24
-0.47316861128125254	1.6722518412513458e-24
-0.47310757612500254	1.6698357091957472e-24
-0.47304654096875254	1.6622755613104096e-24
-0.47298550581250254	1.649594041096461e-24
-0.47292447065625254	1.6318298315549196e-24
-0.47286343550000254	1.609037561035278e-24
-0.47280240034375254	1.5812875937397333e-24
-0.47274136518750254	1.5486658139263554e-24
-0.47268033003125254	1.511273452359456e-24
-0.47261929487500254	1.4692266324577854e-24
-0.47255825971875254	1.4226561275656026e-24
-0.47249722456250254	1.3717069641553103e-24
-0.47243618940625254	1.3165378186985942e-24
-0.47237515425000254	1.2573207371202172e-24
