Time	Frequency
-0.5000178808750064	5.263070719807849e-25
-0.4999568457187564	4.6886505517138645e-25
-0.4998958105625064	4.09011932212745e-25
-0.4998347754062564	3.4704585556496216e-25
-0.4997737402500064	2.8327620927208553e-25
-0.4997127050937564	2.1802170674819926e-25
-0.4996516699375064	1.5160825645793584e-25
-0.4995906347812564	8.436828820455979e-26
-0.4995295996250064	1.6638397545465225e-26
-0.4994685644687564	-5.124231614990436e-26
-0.4994075293125064	-1.1893355779105267e-25
-0.4993464941562564	-1.8609584740187623e-25
-0.4992854590000064	-2.523922509993714e-25
-0.4992244238437564	-3.1749001895640067e-25
-0.4991633886875064	-3.810620561009012e-25
-0.4991023535312564	-4.427888358168061e-25
-0.4990413183750064	-5.023602096627114e-25
-0.4989802832187564	-5.594762263097845e-25
-0.4989192480625064	-6.138493630856598e-25
-0.4988582129062564	-6.652059588989865e-25
-0.4987971777500064	-7.132868848253285e-25
-0.4987361425937564	-7.578497404549329e-25
-0.4986751074375064	-7.986695813880326e-25
-0.4986140722812564	-8.355400978833109e-25
-0.4985530371250064	-8.682748845836385e-25
-0.4984920019687564	-8.967080638936277e-25
-0.4984309668125064	-9.20695447701925e-25
-0.4983699316562564	-9.401151484728592e-25
-0.4983088965000064	-9.548680904990653e-25
-0.4982478613437564	-9.648786595018975e-25
-0.4981868261875064	-9.700951372118053e-25
-0.4981257910312564	-9.704898134815763e-25
-0.4980647558750064	-9.660592321752669e-25
-0.4980037207187564	-9.568242262485002e-25
-0.4979426855625064	-9.428297994159043e-25
-0.4978816504062564	-9.241449307138899e-25
-0.4978206152500064	-9.008621657146403e-25
-0.4977595800937564	-8.730972951657657e-25
-0.4976985449375064	-8.409886587783881e-25
-0.4976375097812564	-8.046964863331407e-25
-0.4975764746250064	-7.644021692025298e-25
-0.4975154394687564	-7.2030726292708955e-25
-0.4974544043125064	-6.726325015520115e-25
-0.4973933691562564	-6.2161672436889745e-25
-0.4973323340000064	-5.675157277601374e-25
-0.4972712988437564	-5.1060077530085865e-25
-0.4972102636875064	-4.511574599099704e-25
-0.4971492285312564	-3.8948425384633673e-25
-0.4970881933750064	-3.258906848529926e-25
-0.4970271582187564	-2.6069635426789745e-25
-0.4969661230625064	-1.9422884645677744e-25
-0.4969050879062564	-1.2682199614885661e-25
-0.4968440527500064	-5.881500178631694e-26
-0.4967830175937564	9.450393203578072e-27
-0.4967219824375064	7.763085498244066e-26
-0.4966609472812564	1.453832585956791e-25
-0.4965999121250064	2.123670064708679e-25
-0.4965388769687564	2.782447984474499e-25
-0.4964778418125064	3.426853181603678e-25
-0.4964168066562564	4.053642480321697e-25
-0.4963557715000064	4.659660084070157e-25
-0.4962947363437564	5.241857638300106e-25
-0.4962337011875064	5.797304696613799e-25
-0.4961726660312564	6.32320519783574e-25
-0.4961116308750064	6.816913310389506e-25
-0.4960505957187564	7.275946563097859e-25
-0.4959895605625064	7.697993828481915e-25
-0.4959285254062564	8.08093464763157e-25
-0.4958674902500064	8.422844734369396e-25
-0.4958064550937564	8.722006086399628e-25
-0.4957454199375064	8.97691906474466e-25
-0.4956843847812564	9.186305498008696e-25
-0.4956233496250064	9.349119877131586e-25
-0.4955623144687564	9.464550843018987e-25
-0.4955012793125064	9.532027125231578e-25
-0.4954402441562564	9.551221662723121e-25
-0.4953792090000064	9.52205026168136e-25
-0.4953181738437564	9.444674969022318e-25
-0.4952571386875064	9.319502317529819e-25
-0.4951961035312564	9.147180303111704e-25
-0.4951350683750064	8.928597411526687e-25
-0.4950740332187564	8.664875829026064e-25
-0.4950129980625064	8.357367237809484e-25
-0.4949519629062564	8.007646695891816e-25
-0.4948909277500064	7.617501537648279e-25
-0.4948298925937564	7.1889265585926065e-25
-0.4947688574375064	6.724111875971764e-25
-0.4947078222812564	6.22542975493921e-25
-0.4946467871250064	5.695427233068451e-25
-0.4945857519687564	5.136810722403541e-25
-0.4945247168125064	4.552430035394807e-25
-0.4944636816562564	3.9452688185281288e-25
-0.4944026465000064	3.318426576740483e-25
-0.4943416113437564	2.6751013369424553e-25
-0.4942805761875064	2.0185783695250554e-25
-0.4942195410312564	1.3522082075598954e-25
-0.4941585058750064	6.793928465742561e-26
-0.4940974707187564	3.5683022384426217e-28
-0.4940364355625064	-6.718155701582821e-26
-0.4939754004062564	-1.3433074480164673e-25
-0.4939143652500064	-2.0074789182845185e-25
-0.4938533300937564	-2.66093555901399e-25
-0.4937922949375064	-3.300337422782811e-25
-0.4937312597812564	-3.922417942186611e-25
-0.4936702246250064	-4.523993528672813e-25
-0.4936091894687564	-5.101989057827491e-25
-0.4935481543125064	-5.653447927688985e-25
-0.4934871191562564	-6.175545832788812e-25
-0.4934260840000064	-6.665609873335854e-25
-0.4933650488437564	-7.1211302820592275e-25
-0.4933040136875064	-7.539772280981541e-25
-0.4932429785312564	-7.919387402058037e-25
-0.4931819433750064	-8.258028005668484e-25
-0.4931209082187564	-8.553955088834792e-25
-0.4930598730625064	-8.8056451978895e-25
-0.4929988379062564	-9.011802207955934e-25
-0.4929378027500064	-9.171362384292695e-25
-0.4928767675937564	-9.283498471332525e-25
-0.4928157324375064	-9.347626082233331e-25
-0.4927546972812564	-9.363406120628092e-25
-0.4926936621250064	-9.330746016842097e-25
-0.4926326269687564	-9.249801289329697e-25
-0.4925715918125064	-9.12097395584356e-25
-0.4925105566562564	-8.944911275505721e-25
-0.4924495215000064	-8.722502497020633e-25
-0.4923884863437564	-8.454873445338747e-25
-0.4923274511875064	-8.143383087650132e-25
-0.4922664160312564	-7.789613855917227e-25
-0.4922053808750064	-7.395365787599722e-25
-0.4921443457187564	-6.962647764194486e-25
-0.4920833105625064	-6.493664166902893e-25
-0.4920222754062564	-5.990808125636248e-25
-0.4919612402500064	-5.456646390446996e-25
-0.4919002050937564	-4.893906598934062e-25
-0.4918391699375064	-4.305465054715907e-25
-0.4917781347812564	-3.6943307345764837e-25
-0.4917170996250064	-3.063629193638172e-25
-0.4916560644687564	-2.4165892029706934e-25
-0.4915950293125064	-1.7565257333801643e-25
-0.4915339941562564	-1.0868182555795527e-25
-0.4914729590000064	-4.1090185791271413e-26
-0.4914119238437564	2.677559932821378e-26
-0.4913508886875064	9.456739020186278e-26
-0.4912898535312564	1.61936912639676e-25
-0.4912288183750064	2.2853804465298697e-25
-0.4911677832187564	2.9402829828475596e-25
-0.4911067480625064	3.5807080408152737e-25
-0.4910457129062564	4.203356794820324e-25
-0.4909846777500064	4.80502025267064e-25
-0.4909236425937564	5.382597299097814e-25
-0.4908626074375064	5.93310290417913e-25
-0.4908015722812564	6.453693173863972e-25
-0.4907405371250064	6.941675002590828e-25
-0.4906795019687564	7.394516575668113e-25
-0.4906184668125064	7.809869733209428e-25
-0.4905574316562564	8.185572785849354e-25
-0.4904963965000064	8.51966589697182e-25
-0.4904353613437564	8.810403026494537e-25
-0.4903743261875064	9.056255980901962e-25
-0.4903132910312564	9.255927248690377e-25
-0.4902522558750064	9.40835355317607e-25
-0.4901912207187564	9.512713079421095e-25
-0.4901301855625064	9.568429406957248e-25
-0.4900691504062564	9.575173949117625e-25
-0.4900081152500064	9.532869183258426e-25
-0.4899470800937564	9.441687844794827e-25
-0.4898860449375064	9.30205295386204e-25
-0.4898250097812564	9.11463551535068e-25
-0.4897639746250064	8.880351797770517e-25
-0.4897029394687564	8.600357695272104e-25
-0.4896419043125064	8.276043793325974e-25
-0.4895808691562564	7.909029249754827e-25
-0.4895198340000064	7.501150991666096e-25
-0.4894587988437564	7.054457005488728e-25
-0.4893977636875064	6.571195842989178e-25
-0.4893367285312564	6.053803211914814e-25
-0.4892756933750064	5.50489172231637e-25
-0.4892146582187564	4.927236487922937e-25
-0.4891536230625064	4.323761852097204e-25
-0.4890925879062564	3.6975261191213514e-25
-0.4890315527500064	3.0517050824643376e-25
-0.4889705175937564	2.3895777959822636e-25
-0.4889094824375064	1.714508822623985e-25
-0.4888484472812564	1.0299300501302566e-25
-0.4887874121250064	3.3932500488365085e-26
-0.4887263769687564	-3.5378991194456126e-26
-0.4886653418125064	-1.0458828606502693e-25
-0.4886043066562564	-1.733425435722436e-25
-0.4885432715000064	-2.4129106780841925e-25
-0.4884822363437564	-3.080869313572496e-25
-0.4884212011875064	-3.733889744295477e-25
-0.4883601660312564	-4.368634374654344e-25
-0.4882991308750064	-4.9818573802380215e-25
-0.4882380957187564	-5.570420243647062e-25
-0.4881770605625064	-6.131308374276981e-25
-0.4881160254062564	-6.661647899530612e-25
-0.4880549902500064	-7.158719186923543e-25
-0.4879939550937564	-7.619969694931475e-25
-0.4879329199375064	-8.043029372801486e-25
-0.4878718847812564	-8.42572277315911e-25
-0.4878108496250064	-8.766078168032158e-25
-0.4877498144687564	-9.062339653110333e-25
-0.4876887793125064	-9.312975257910806e-25
-0.4876277441562564	-9.516686311664006e-25
-0.4875667090000064	-9.672412543071618e-25
-0.4875056738437564	-9.779337631513032e-25
-0.4874446386875064	-9.836895886243663e-25
-0.4873836035312564	-9.844772506917708e-25
-0.4873225683750064	-9.802906023760534e-25
-0.4872615332187564	-9.711490422750528e-25
-0.4872004980625064	-9.570971966192444e-25
-0.4871394629062564	-9.382048350034663e-25
-0.4870784277500064	-9.145665273461285e-25
-0.4870173925937564	-8.863010636526207e-25
-0.4869563574375064	-8.535510651056287e-25
-0.4868953222812564	-8.164819885845331e-25
-0.4868342871250064	-7.752815093984716e-25
-0.4867732519687564	-7.301585668417493e-25
-0.4867122168125064	-6.8134205618680485e-25
-0.4866511816562564	-6.2907999347387825e-25
-0.4865901465000064	-5.736381057958821e-25
-0.4865291113437564	-5.152983043807397e-25
-0.4864680761875064	-4.543576355513258e-25
-0.4864070410312564	-3.911264490173772e-25
-0.4863460058750064	-3.2592676459567816e-25
-0.4862849707187564	-2.590910890831559e-25
-0.4862239355625064	-1.9096009787059818e-25
-0.4861629004062564	-1.2188133566548262e-25
-0.4861018652500064	-5.220726555803313e-26
-0.4860408300937564	1.7706544794167085e-26
-0.4859797949375064	8.750303594142781e-26
-0.4859187597812564	1.5682610809606915e-25
-0.4858577246250064	2.253214556121377e-25
-0.4857966894687564	2.9263922956957866e-25
-0.4857356543125064	3.5843569446760894e-25
-0.4856746191562564	4.223743990631684e-25
-0.4856135840000064	4.841288039274213e-25
-0.4855525488437564	5.433832567795548e-25
-0.4854915136875064	5.998348680569759e-25
-0.4854304785312564	6.531952171516218e-25
-0.4853694433750064	7.031916097466229e-25
-0.4853084082187564	7.495685124044538e-25
-0.4852473730625064	7.920890219253932e-25
-0.4851863379062564	8.305360261723134e-25
-0.4851253027500064	8.647131389979173e-25
-0.4850642675937564	8.944460514254977e-25
-0.4850032324375064	9.195831735293067e-25
-0.4849421972812564	9.399964957976882e-25
-0.4848811621250064	9.555823302048567e-25
-0.4848201269687564	9.662617309263328e-25
-0.4847590918125064	9.719810095419907e-25
-0.4846980566562564	9.727119516803644e-25
-0.4846370215000064	9.684520066246861e-25
-0.4845759863437564	9.592243164711663e-25
-0.4845149511875064	9.450775491062672e-25
-0.4844539160312564	9.26085744881807e-25
-0.4843928808750064	9.023478449862043e-25
-0.4843318457187564	8.739872769689662e-25
-0.4842708105625064	8.411512774808824e-25
-0.4842097754062564	8.040101413145596e-25
-0.4841487402500064	7.627563975169211e-25
-0.4840877050937564	7.176037094141319e-25
-0.4840266699375064	6.687859870511489e-25
-0.4839656347812564	6.165559670745585e-25
-0.4839045996250064	5.611839974007973e-25
-0.4838435644687564	5.0295676213458025e-25
-0.4837825293125064	4.421756075828294e-25
-0.4837214941562564	3.7915514033337756e-25
-0.4836604590000064	3.1422157623461778e-25
-0.4835994238437564	2.4771094901396593e-25
-0.4835383886875064	1.7996766014494064e-25
-0.4834773535312564	1.1134235654817793e-25
-0.4834163183750064	4.2190237129234553e-26
-0.4833552832187564	-2.713042784851948e-26
-0.4832942480625064	-9.62607537422822e-26
-0.4832332129062564	-1.6484277331010255e-25
-0.4831721777500064	-2.325210755873276e-25
-0.4831111425937564	-2.989450472894773e-25
-0.4830501074375064	-3.637705063682388e-25
-0.4829890722812564	-4.266614596492518e-25
-0.4829280371250064	-4.872918072726294e-25
-0.4828670019687564	-5.453471579920876e-25
-0.4828059668125064	-6.005264471263873e-25
-0.4827449316562564	-6.525432672343673e-25
-0.4826838965000064	-7.011277569225672e-25
-0.4826228613437564	-7.460276333993907e-25
-0.4825618261875064	-7.870095948371322e-25
-0.4825007910312564	-8.23860811150484e-25
-0.4824397558750064	-8.56389614282566e-25
-0.4823787207187564	-8.844267013464637e-25
-0.4823176855625064	-9.078261834052799e-25
-0.4822566504062564	-9.264659976012973e-25
-0.4821956152500064	-9.402487583742488e-25
-0.4821345800937564	-9.491023983110271e-25
-0.4820735449375064	-9.529801895145915e-25
-0.4820125097812564	-9.518613168543802e-25
-0.4819514746250064	-9.457509112580474e-25
-0.4818904394687564	-9.346799065949477e-25
-0.4818294043125064	-9.187050715105903e-25
-0.4817683691562564	-8.979086451222191e-25
-0.4817073340000064	-8.723978511307327e-25
-0.4816462988437564	-8.423044978250998e-25
-0.4815852636875064	-8.077842536191957e-25
-0.4815242285312564	-7.6901571565451095e-25
-0.4814631933750064	-7.261996979201697e-25
-0.4814021582187564	-6.795581670355848e-25
-0.4813411230625064	-6.293329400194615e-25
-0.4812800879062564	-5.757844974172872e-25
-0.4812190527500064	-5.191909235978858e-25
-0.4811580175937564	-4.598460858752749e-25
-0.4810969824375064	-3.980581289645779e-25
-0.4810359472812564	-3.341483609362281e-25
-0.4809749121250064	-2.6844907259657815e-25
-0.4809138769687564	-2.013019005430744e-25
-0.4808528418125064	-1.3305639808394728e-25
-0.4807918066562564	-6.406785575008612e-26
-0.4807307715000064	5.3043572330055986e-27
-0.4806697363437564	7.46987020426309e-26
-0.4806087011875064	1.4375346352896322e-25
-0.4805476660312564	2.1210815670399576e-25
-0.4804866308750064	2.794061603397915e-25
-0.4804255957187564	3.4529603478356093e-25
-0.4803645605625064	4.0943314560478627e-25
-0.4803035254062564	4.7148230286509965e-25
-0.4802424902500064	5.31118620369863e-25
-0.4801814550937564	5.880296213884267e-25
-0.4801204199375064	6.419170112365916e-25
-0.4800593847812564	6.924977947470573e-25
-0.4799983496250064	7.395061358542921e-25
-0.4799373144687564	7.826945633175469e-25
-0.4798762793125064	8.218353910347018e-25
-0.4798152441562564	8.567217800993834e-25
-0.4797542090000064	8.871687304994465e-25
-0.4796931738437564	9.13014548668513e-25
-0.4796321386875064	9.341211042376222e-25
-0.4795711035312564	9.503747492567108e-25
-0.4795100683750064	9.616872744711476e-25
-0.4794490332187564	9.679958476670837e-25
-0.4793879980625064	9.69263675129839e-25
-0.4793269629062564	9.65480201193367e-25
-0.4792659277500064	9.566610095385798e-25
-0.4792048925937564	9.42847935747418e-25
-0.4791438574375064	9.241087939751877e-25
-0.4790828222812564	9.005369786065616e-25
-0.4790217871250064	8.722511193194014e-25
-0.4789607519687564	8.393944139187199e-25
-0.4788997168125064	8.02133826955121e-25
-0.4788386816562564	7.6065945812988645e-25
-0.4787776465000064	7.15183259904156e-25
-0.4787166113437564	6.659381991109319e-25
-0.4786555761875064	6.131770753570112e-25
-0.4785945410312564	5.571708460893708e-25
-0.4785335058750064	4.982077878075607e-25
-0.4784724707187564	4.365916132874315e-25
-0.4784114355625064	3.726399148634292e-25
-0.4783504004062564	3.0668282387622743e-25
-0.4782893652500064	2.3906095639499586e-25
-0.4782283300937564	1.7012379104824224e-25
-0.4781672949375064	1.0022804665572659e-25
-0.4781062597812564	2.9735359258393484e-26
-0.4780452246250064	-4.098910786426693e-26
-0.4779841894687564	-1.1157862542193493e-25
-0.4779231543125064	-1.8166738038946905e-25
-0.4778621191562564	-2.508914537042468e-25
-0.4778010840000064	-3.1889139834000837e-25
-0.4777400488437564	-3.853139728090732e-25
-0.4776790136875064	-4.498136875089499e-25
-0.4776179785312564	-5.120551527961415e-25
-0.4775569433750064	-5.717140719893156e-25
-0.4774959082187564	-6.284796621147383e-25
-0.4774348730625064	-6.820561050738297e-25
-0.4773738379062564	-7.321634660700289e-25
-0.4773128027500064	-7.785401247981936e-25
-0.4772517675937564	-8.209435505107666e-25
-0.4771907324375064	-8.591515296813461e-25
-0.4771296972812564	-8.929637576136164e-25
-0.4770686621250064	-9.222024705673531e-25
-0.4770076269687564	-9.467136243310879e-25
-0.4769465918125064	-9.6636765748712e-25
-0.4768855566562564	-9.810600407703057e-25
-0.4768245215000064	-9.907120993067348e-25
-0.4767634863437564	-9.952712544801553e-25
-0.4767024511875064	-9.94711232563493e-25
-0.4766414160312564	-9.890324813934878e-25
-0.4765803808750064	-9.782619762278435e-25
-0.4765193457187564	-9.624530915921162e-25
-0.4764583105625064	-9.416855020754285e-25
-0.4763972754062564	-9.16064588003608e-25
-0.4763362402500064	-8.857210212089368e-25
-0.4762752050937564	-8.50810086976991e-25
-0.4762141699375064	-8.115108334739646e-25
-0.4761531347812564	-7.68025197605603e-25
-0.4760920996250064	-7.205769550532259e-25
-0.4760310644687564	-6.6941058947998115e-25
-0.4759700293125064	-6.147899484370521e-25
-0.4759089941562564	-5.569970247231538e-25
-0.4758479590000064	-4.963302695310167e-25
-0.4757869238437564	-4.331034315593538e-25
-0.4757258886875064	-3.676434134650816e-25
-0.4756648535312564	-3.002889363089007e-25
-0.4756038183750064	-2.31388958075935e-25
-0.4755427832187564	-1.6130003956221262e-25
-0.4754817480625064	-9.038567271107654e-26
-0.4754207129062564	-1.901331860274067e-26
-0.4753596777500064	5.24469371764359e-26
-0.4752986425937564	1.2362420694315825e-25
-0.4752376074375064	1.9414945233392847e-25
-0.4751765722812564	2.6365630163120744e-25
-0.4751155371250064	3.317840897360382e-25
-0.4750545019687564	3.9817905247497227e-25
-0.4749934668125064	4.6249612737236965e-25
-0.4749324316562564	5.244013355268551e-25
-0.4748713965000064	5.835729699883783e-25
-0.4748103613437564	6.397035173315625e-25
-0.4747493261875064	6.925011123070442e-25
-0.4746882910312564	7.416914741897943e-25
-0.4746272558750064	7.870188245843688e-25
-0.4745662207187564	8.282473315205073e-25
-0.4745051855625064	8.651629674553706e-25
-0.4744441504062564	8.975736366294995e-25
-0.4743831152500064	9.253108292880575e-25
-0.4743220800937564	9.48230678798499e-25
-0.4742610449375064	9.662140217226889e-25
-0.4742000097812564	9.791675781047463e-25
-0.4741389746250064	9.870244007367842e-25
-0.4740779394687564	9.89744025926809e-25
-0.4740169043125064	9.873127909881429e-25
-0.4739558691562564	9.79743987530445e-25
-0.4738948340000064	9.670777597738207e-25
-0.4738337988437564	9.493807999138674e-25
-0.4737727636875064	9.267461727898082e-25
-0.4737117285312564	8.9929278946185e-25
-0.4736506933750064	8.671646441085324e-25
-0.4735896582187564	8.305303755604293e-25
-0.4735286230625064	7.895820818801743e-25
-0.4734675879062564	7.445344785731774e-25
-0.4734065527500064	6.956238664375193e-25
-0.4733455175937564	6.431066501495219e-25
-0.4732844824375064	5.872582983661477e-25
-0.4732234472812564	5.2837160184267615e-25
-0.4731624121250064	4.667555336144972e-25
-0.4731013769687564	4.0273323121380105e-25
-0.4730403418125064	3.366404289931901e-25
-0.4729793066562564	2.6882416063081327e-25
-0.4729182715000064	1.9964004017625533e-25
-0.4728572363437564	1.2945116815025495e-25
-0.4727962011875064	5.86261427170557e-26
-0.4727351660312564	-1.2463387002732829e-26
-0.4726741308750064	-8.34440816574005e-26
-0.4726130957187564	-1.5394319988631222e-25
-0.4725520605625064	-2.235903653649038e-25
-0.4724910254062564	-2.9201968035334868e-25
-0.4724299902500064	-3.5887166095125206e-25
-0.4723689550937564	-4.237947151559366e-25
-0.4723079199375064	-4.864476535012438e-25
-0.4722468847812564	-5.4650104343510095e-25
-0.4721858496250064	-6.0363883809913175e-25
-0.4721248144687564	-6.575605154739549e-25
-0.4720637793125064	-7.079822465590584e-25
-0.4720027441562564	-7.546385229064123e-25
-0.4719417090000064	-7.97283670667648e-25
-0.4718806738437564	-8.356929154877666e-25
-0.4718196386875064	-8.696637957897373e-25
-0.4717586035312564	-8.990171651229822e-25
-0.4716975683750064	-9.235979886337284e-25
-0.4716365332187564	-9.432764517736835e-25
-0.4715754980625064	-9.579484548750792e-25
-0.4715144629062564	-9.675361539355313e-25
-0.4714534277500064	-9.719885331227746e-25
