Time	Frequency
-0.500028371687506	-0.3551783818298612
-0.499967336531256	-0.3399196994030009
-0.499906301375006	-0.32335416754521334
-0.499845266218756	-0.30554537280487165
-0.499784231062506	-0.28656180432961725
-0.499723195906256	-0.26647649554022196
-0.499662160750006	-0.24536688717506408
-0.499601125593756	-0.2233144076873464
-0.499540090437506	-0.20040416876690523
-0.499479055281256	-0.17672473856819784
-0.499418020125006	-0.15236763637194728
-0.499356984968756	-0.12742711402530524
-0.499295949812506	-0.1019997283679594
-0.499234914656256	-0.07618391588235729
-0.499173879500006	-0.050079737488082796
-0.499112844343756	-0.023788362306725614
-0.499051809187506	0.002588273975811988
-0.498990774031256	0.02894788404591913
-0.498929738875006	0.055188166748059514
-0.498868703718756	0.08120731122854408
-0.498807668562506	0.10690440432165627
-0.498746633406256	0.13217956834294337
-0.498685598250006	0.15693477279535212
-0.498624563093756	0.18107393525544582
-0.498563527937506	0.20450321969193383
-0.498502492781256	0.22713178358651495
-0.498441457625006	0.24887173908885937
-0.498380422468756	0.269638674149085
-0.498319387312506	0.2893520573070381
-0.498258352156256	0.30793538418400995
-0.498197317000006	0.32531657635997596
-0.498136281843756	0.34142830748496655
-0.498075246687506	0.35620816708990116
-0.498014211531256	0.36959893881906875
-0.497953176375006	0.38154890827434446
-0.497892141218756	0.3920119501988336
-0.497831106062506	0.4009477729434594
-0.497770070906256	0.4083220919294751
-0.497709035750006	0.4141067273836452
-0.497648000593756	0.4182797278898834
-0.497586965437506	0.42082548550564036
-0.497525930281256	0.4217347681282155
-0.497464895125006	0.4210047570785669
-0.497403859968756	0.418639097501269
-0.497342824812506	0.41464783515816706
-0.497281789656256	0.40904741505397574
-0.497220754500006	0.40186061079016944
-0.497159719343756	0.39311641983735757
-0.497098684187506	0.3828499814699112
-0.497037649031256	0.37110240701726555
-0.496976613875006	0.3579206551375731
-0.496915578718756	0.34335730320862723
-0.496854543562506	0.3274703905649599
-0.496793508406256	0.3103231802284793
-0.496732473250006	0.29198383939713385
-0.496671438093756	0.2725253081837899
-0.496610402937506	0.25202491401721927
-0.496549367781256	0.23056403522873017
-0.496488332625006	0.20822792903791437
-0.496427297468756	0.18510525431967212
-0.496366262312506	0.1612877507392069
-0.496305227156256	0.1368699814180158
-0.496244192000006	0.11194877931476675
-0.496183156843756	0.08662304190949714
-0.496122121687506	0.060993253237898525
-0.496061086531256	0.035161036063121376
-0.496000051375006	0.009228937139750775
-0.495939016218756	-0.016700226246074406
-0.495877981062506	-0.04252359585628384
-0.495816945906256	-0.06813866694024191
-0.495755910750006	-0.09344388511973002
-0.495694875593756	-0.11833881901217641
-0.495633840437506	-0.14272465474710588
-0.495572805281256	-0.16650466965255345
-0.495511770125006	-0.18958448972336847
-0.495450734968756	-0.21187247331131626
-0.495389699812506	-0.23328014588998425
-0.495328664656256	-0.2537225781171072
-0.495267629500006	-0.2731185479121637
-0.495206594343756	-0.29139101833295245
-0.495145559187506	-0.30846747099286137
-0.495084524031256	-0.3242800380475749
-0.495023488875006	-0.3387658803452102
-0.494962453718756	-0.3518674506781139
-0.494901418562506	-0.3635326988634432
-0.494840383406256	-0.37371519257844055
-0.494779348250006	-0.38237447278872905
-0.494718313093756	-0.3894761185487804
-0.494657277937506	-0.3949918077715151
-0.494596242781256	-0.3988996383833013
-0.494535207625006	-0.40118402723247226
-0.494474172468756	-0.4018358394641629
-0.494413137312506	-0.4008524851354273
-0.494352102156256	-0.3982378313509923
-0.494291067000006	-0.39400226303412644
-0.494230031843756	-0.38816261484570586
-0.494168996687506	-0.3807421142892616
-0.494107961531256	-0.3717702853282054
-0.494046926375006	-0.36128284382183196
-0.493985891218756	-0.3493215644795448
-0.493924856062506	-0.3359340698934784
-0.493863820906256	-0.32117373878594996
-0.493802785750006	-0.3050993928276634
-0.493741750593756	-0.287775113525606
-0.493680715437506	-0.2692700502436607
-0.493619680281256	-0.24965799036095207
-0.493558645125006	-0.2290172360460527
-0.493497609968756	-0.20743022613750695
-0.493436574812506	-0.18498314091190846
-0.493375539656256	-0.16176570799089096
-0.493314504500006	-0.1378707544601677
-0.493253469343756	-0.11339377940493132
-0.493192434187506	-0.08843275378487361
-0.493131399031256	-0.06308760261408593
-0.493070363875006	-0.03745975852124141
-0.493009328718756	-0.011651946234985925
-0.492948293562506	0.014232389536692442
-0.492887258406256	0.040089455477068506
-0.492826223250006	0.06581546727240772
-0.492765188093756	0.09130710410766345
-0.492704152937506	0.11646196213310407
-0.492643117781256	0.14117886766120397
-0.492582082625006	0.16535832570166814
-0.492521047468756	0.18890299170176264
-0.492460012312506	0.2117178754783196
-0.492398977156256	0.23371093111840563
-0.492337942000006	0.25479331175638964
-0.492276906843756	0.2748796341231347
-0.492215871687506	0.29388859525894034
-0.492154836531256	0.3117430210811861
-0.492093801375006	0.32837024171636786
-0.492032766218756	0.34370257853693076
-0.491971731062506	0.35767732454165224
-0.491910695906256	0.37023716358006653
-0.491849660750006	0.3813304434046977
-0.491788625593756	0.39091123101322434
-0.491727590437506	0.39893960891809244
-0.491666555281256	0.40538184136236916
-0.491605520125006	0.41021044694372677
-0.491544484968756	0.41340435024148803
-0.491483449812506	0.4149489991061165
-0.491422414656256	0.4148363501491006
-0.491361379500006	0.4130649812335737
-0.491300344343756	0.40964006681786014
-0.491239309187506	0.4045733435200593
-0.491178274031256	0.39788311870587256
-0.491117238875006	0.3895941485308381
-0.491056203718756	0.3797375836285465
-0.490995168562506	0.3683508255804342
-0.490934133406256	0.35547738545586105
-0.490873098250006	0.3411667401291929
-0.490812063093756	0.3254740927285659
-0.490751027937506	0.30846020207160013
-0.490689992781256	0.29019112375776557
-0.490628957625006	0.2707379350555791
-0.490567922468756	0.2501765163878347
-0.490506887312506	0.2285871572240312
-0.490445852156256	0.20605431532002
-0.490384817000006	0.18266630544783613
-0.490323781843756	0.1585148115795182
-0.490262746687506	0.1336947011677239
-0.490201711531256	0.10830356092481208
-0.490140676375006	0.08244124813558755
-0.490079641218756	0.056209663427127236
-0.490018606062506	0.029712172908503694
-0.489957570906256	0.0030532902690295492
-0.489896535750006	-0.023661694595370316
-0.489835500593756	-0.05032728676860185
-0.489774465437506	-0.07683806876038635
-0.489713430281256	-0.10308911897810147
-0.489652395125006	-0.1289765651093146
-0.489591359968756	-0.154397848355246
-0.489530324812506	-0.1792521631304971
-0.489469289656256	-0.20344097772876996
-0.489408254500006	-0.2268682363546513
-0.489347219343756	-0.2494409005688793
-0.489286184187506	-0.27106926518449354
-0.489225149031256	-0.2916672578321808
-0.489164113875006	-0.3111529161496628
-0.489103078718756	-0.3294485719691891
-0.489042043562506	-0.34648127786571514
-0.488981008406256	-0.362183034259279
-0.488919973250006	-0.37649104968657116
-0.488858938093756	-0.3893481064700899
-0.488797902937506	-0.4007026194142584
-0.488736867781256	-0.41050897628741156
-0.488675832625006	-0.41872771359676536
-0.488614797468756	-0.42532555945264494
-0.488553762312506	-0.4302757262185945
-0.488492727156256	-0.43355793788829
-0.488431692000006	-0.4351584865967
-0.488370656843756	-0.4350703603747964
-0.488309621687506	-0.43329324331753616
-0.488248586531256	-0.4298335047661874
-0.488187551375006	-0.42470419547758564
-0.488126516218756	-0.41792500330205173
-0.488065481062506	-0.4095221661522444
-0.488004445906256	-0.39952837318698986
-0.487943410750006	-0.3879826375439344
-0.487882375593756	-0.37493015828984816
-0.487821340437506	-0.36042211167923066
-0.487760305281256	-0.3445154891526049
-0.487699270125006	-0.3272728432255856
-0.487638234968756	-0.3087620457031872
-0.487577199812506	-0.28905604559098313
-0.487516164656256	-0.2682325251893678
-0.487455129500006	-0.24637367397146612
-0.487394094343756	-0.22356577918021892
-0.487333059187506	-0.19989892525407185
-0.487272024031256	-0.17546666149618212
-0.487210988875006	-0.1503655624553714
-0.487149953718756	-0.12469491747477644
-0.487088918562506	-0.09855626743130455
-0.487027883406256	-0.07205307027575775
-0.486966848250006	-0.04529022976833396
-0.486905813093756	-0.018373697033529608
-0.486844777937506	0.008589913111369533
-0.486783742781256	0.035493823299443145
-0.486722707625006	0.06223144938083154
-0.486661672468756	0.08869687660529317
-0.486600637312506	0.1147852222219167
-0.486539602156256	0.14039313391708808
-0.486478567000006	0.16541917447285365
-0.486417531843756	0.18976412608651738
-0.486356496687506	0.21333157245903375
-0.486295461531256	0.2360281711149747
-0.486234426375006	0.2577639821828248
-0.486173391218756	0.2784529735697846
-0.486112356062506	0.298013229071682
-0.486051320906256	0.31636735281130773
-0.485990285750006	0.3334427839818696
-0.485929250593756	0.3491719831689783
-0.485868215437506	0.36349289740610546
-0.485807180281256	0.37634903527038416
-0.485746145125006	0.38768971610139963
-0.485685109968756	0.3974704228014799
-0.485624074812506	0.40565280272866594
-0.485563039656256	0.4122048877393942
-0.485502004500006	0.4171012784315609
-0.485440969343756	0.4203231875710677
-0.485379934187506	0.4218585018633608
-0.485318899031256	0.42170189286993814
-0.485257863875006	0.4198548184668001
-0.485196828718756	0.41632547359213284
-0.485135793562506	0.41112882803784595
-0.485074758406256	0.40428653053728403
-0.485013723250006	0.3958268222653746
-0.484952688093756	0.38578444567099746
-0.484891652937506	0.3742004838940837
-0.484830617781256	0.36112222288923446
-0.484769582625006	0.3466029432132706
-0.484708547468756	0.33070171838487117
-0.484647512312506	0.31348315940144017
-0.484586477156256	0.29501721751716453
-0.484525442000006	0.27537882278650694
-0.484464406843756	0.25464761252678597
-0.484403371687506	0.23290770659833324
-0.484342336531256	0.21024716322733816
-0.484281301375006	0.18675786178064288
-0.484220266218756	0.16253499463646592
-0.484159231062506	0.13767664667499518
-0.484098195906256	0.11228359738356561
-0.484037160750006	0.08645867895287869
-0.483976125593756	0.06030654034665962
-0.483915090437506	0.03393313393264365
-0.483854055281256	0.00744531748011653
-0.483793020125006	-0.019049544643289645
-0.483731984968756	-0.045444095667577275
-0.483670949812506	-0.07163131205479704
-0.483609914656256	-0.09750504091163252
-0.483548879500006	-0.12296032515429568
-0.483487844343756	-0.14789392009856958
-0.483426809187506	-0.17220465341906643
-0.483365774031256	-0.19579381979440014
-0.483304738875006	-0.2185656541406579
-0.483243703718756	-0.24042763397691985
-0.483182668562506	-0.2612909196684204
-0.483121633406256	-0.2810706523734568
-0.483060598250006	-0.29968636296323165
-0.482999563093756	-0.3170622486518135
-0.482938527937506	-0.3331274950383006
-0.482877492781256	-0.3478165839811906
-0.482816457625006	-0.36106952129766523
-0.482755422468756	-0.37283212637584157
-0.482694387312506	-0.38305619406439295
-0.482633352156256	-0.39169977534641953
-0.482572317000006	-0.3987272682138688
-0.482511281843756	-0.40410958306190975
-0.482450246687506	-0.4078243370649359
-0.482389211531256	-0.40985582763502404
-0.482328176375006	-0.41019518238777897
-0.482267141218756	-0.40884039000542993
-0.482206106062506	-0.4057962745859764
-0.482145070906256	-0.40107451284878926
-0.482084035750006	-0.39469357766305563
-0.482023000593756	-0.38667867734215916
-0.481961965437506	-0.37706163006299703
-0.481900930281256	-0.36588078122599466
-0.481839895125006	-0.35318081236640547
-0.481778859968756	-0.3390125844033012
-0.481717824812506	-0.32343293714225657
-0.481656789656256	-0.30650444632174645
-0.481595754500006	-0.28829519675761406
-0.481534719343756	-0.26887848813479953
-0.481473684187506	-0.24833257547689622
-0.481412649031256	-0.22674027248690173
-0.481351613875006	-0.20418876288833007
-0.481290578718756	-0.18076912965495567
-0.481229543562506	-0.15657596050114952
-0.481168508406256	-0.131707166380065
-0.481107473250006	-0.10626336355562666
-0.481046438093756	-0.08034754406808664
-0.480985402937506	-0.05406475740299934
-0.480924367781256	-0.0275215625518335
-0.480863332625006	-0.0008256141410390197
-0.480802297468756	0.025914706583144202
-0.480741262312506	0.05259075167435218
-0.480680227156256	0.07909410549053145
-0.480619192000006	0.1053169673248321
-0.480558156843756	0.13115255740875684
-0.480497121687506	0.15649564878181454
-0.480436086531256	0.18124289226405407
-0.480375051375006	0.20529329506435598
-0.480314016218756	0.22854863491682084
-0.480252981062506	0.250913780902099
-0.480191945906256	0.2722971920826263
-0.480130910750006	0.2926112191466008
-0.480069875593756	0.31177247566845684
-0.480008840437506	0.32970215113029
-0.479947805281256	0.34632642116774376
-0.479886770125006	0.36157665162508906
-0.479825734968756	0.3753896797677604
-0.479764699812506	0.3877082126905546
-0.479703664656256	0.3984808571292118
-0.479642629500006	0.4076624793778961
-0.479581594343756	0.4152143785984504
-0.479520559187506	0.4211043374942225
-0.479459524031256	0.4253069016784402
-0.479398488875006	0.42780340796674915
-0.479337453718756	0.42858204714387593
-0.479276418562506	0.42763797250504654
-0.479215383406256	0.42497329940641354
-0.479154348250006	0.42059708246058103
-0.479093313093756	0.4145253091004194
-0.479032277937506	0.40678083536545834
-0.478971242781256	0.3973932767163166
-0.478910207625006	0.3863989374236285
-0.478849172468756	0.3738406035308133
-0.478788137312506	0.35976743203056843
-0.478727102156256	0.3442347474168764
-0.478666067000006	0.32730376476118134
-0.478605031843756	0.30904143665137007
-0.478543996687506	0.28952010379738763
-0.478482961531256	0.26881727721035886
-0.478421926375006	0.24701524578828674
-0.478360891218756	0.22420080915641494
-0.478299856062506	0.20046498368248986
-0.478238820906256	0.1759024112148711
-0.478177785750006	0.15061127989447162
-0.478116750593756	0.12469274311460388
-0.478055715437506	0.09825046213235694
-0.477994680281256	0.07139043676206337
-0.477933645125006	0.04422026494844385
-0.477872609968756	0.01684894516994255
-0.477811574812506	-0.0106136248394781
-0.477750539656256	-0.038057229001827494
-0.477689504500006	-0.06537151830159235
-0.477628469343756	-0.09244668897984218
-0.477567434187506	-0.11917386989644932
-0.477506399031256	-0.14544544878190302
-0.477445363875006	-0.1711556223732625
-0.477384328718756	-0.19620085891515737
-0.477323293562506	-0.22048020700881438
-0.477262258406256	-0.2438957108760135
-0.477201223250006	-0.26635295168828604
-0.477140188093756	-0.28776129220561436
-0.477079152937506	-0.308034245249472
-0.477018117781256	-0.3270899234470848
-0.476957082625006	-0.34485132084684583
-0.476896047468756	-0.36124658076625876
-0.476835012312506	-0.3762093599404334
-0.476773977156256	-0.3896790931212222
-0.476712942000006	-0.4016011839931888
-0.476651906843756	-0.41192729045910964
-0.476590871687506	-0.4206154984998477
-0.476529836531256	-0.42763049527456537
-0.476468801375006	-0.4329437200248944
-0.476407766218756	-0.43653346739654203
-0.476346731062506	-0.4383850201785842
-0.476285695906256	-0.43849066285278476
-0.476224660750006	-0.43684973372471914
-0.476163625593756	-0.4334686580086609
-0.476102590437506	-0.4283608832562054
-0.476041555281256	-0.42154684873198656
-0.475980520125006	-0.4130539144181375
-0.475919484968756	-0.4029162329789343
-0.475858449812506	-0.39117462400905684
-0.475797414656256	-0.3778764223182289
-0.475736379500006	-0.3630752638552298
-0.475675344343756	-0.3468308889697488
-0.475614309187506	-0.3292089139261481
-0.475553274031256	-0.31028052222494856
-0.475492238875006	-0.29012222906776924
-0.475431203718756	-0.26881556021329595
-0.475370168562506	-0.24644667403452142
-0.475309133406256	-0.22310609181144367
-0.475248098250006	-0.19888829845524367
-0.475187063093756	-0.1738913119674791
-0.475126027937506	-0.14821635936107183
-0.475064992781256	-0.1219674640825219
-0.475003957625006	-0.09525093188204527
-0.474942922468756	-0.06817503565343472
-0.474881887312506	-0.04084953015509981
-0.474820852156256	-0.013385155071936725
-0.474759817000006	0.014106715808339037
-0.474698781843756	0.041514616849585406
-0.474637746687506	0.06872738380161256
-0.474576711531256	0.09563463519295681
-0.474515676375006	0.12212722412916972
-0.474454641218756	0.14809766240804945
-0.474393606062506	0.17344057680231637
-0.474332570906256	0.1980531272863797
-0.474271535750006	0.221835448214616
-0.474210500593756	0.24469100206532488
-0.474149465437506	0.26652706087577793
-0.474088430281256	0.2872550091967799
-0.474027395125006	0.306790712417992
-0.473966359968756	0.32505494080447783
-0.473905324812506	0.3419735718840982
-0.473844289656256	0.3574779954706321
-0.473783254500006	0.37150537562129693
-0.473722219343756	0.38399881614831666
-0.473661184187506	0.3949077510737443
-0.473600149031256	0.4041880633060499
-0.473539113875006	0.41180219804317975
-0.473478078718756	0.41771949445344664
-0.473417043562506	0.4219161754134349
-0.473356008406256	0.4243754501595035
-0.473294973250006	0.42508769066493873
-0.473233938093756	0.42405036159825005
-0.473172902937506	0.42126807938083716
-0.473111867781256	0.41675261150358117
-0.473050832625006	0.4105227992615734
-0.472989797468756	0.4026044992986055
-0.472928762312506	0.39303048684379344
-0.472867727156256	0.38184030230262017
-0.472806692000006	0.3690801223599612
-0.472745656843756	0.35480254567705233
-0.472684621687506	0.3390663909418501
-0.472623586531256	0.3219364885869305
-0.472562551375006	0.3034833375903164
-0.472501516218756	0.2837829080399736
-0.472440481062506	0.2629163185648579
-0.472379445906256	0.24096941992584944
-0.472318410750006	0.21803254820265563
-0.472257375593756	0.19420013550294743
-0.472196340437506	0.16957027858499266
-0.472135305281256	0.14424436218534564
-0.472074270125006	0.1183266775935423
-0.472013234968756	0.09192398049792046
-0.471952199812506	0.06514498014244918
-0.471891164656256	0.038100039143508665
-0.471830129500006	0.01090061086685047
-0.471769094343756	-0.016341221689158535
-0.471708059187506	-0.043513111788630876
-0.471647024031256	-0.07050297827536152
-0.471585988875006	-0.09719946552413218
-0.471524953718756	-0.12349241670824924
-0.471463918562506	-0.14927320097505256
-0.471402883406256	-0.17443535191464293
-0.471341848250006	-0.19887488688051788
-0.471280813093756	-0.2224906842270204
-0.471219777937506	-0.24518506416007288
-0.471158742781256	-0.26686405488711623
-0.471097707625006	-0.2874378194210362
-0.471036672468756	-0.30682101705929193
-0.470975637312506	-0.32493320447835566
-0.470914602156256	-0.341699107610498
-0.470853567000006	-0.35704895145514826
-0.470792531843756	-0.37091876697231535
-0.470731496687506	-0.38325063318498614
-0.470670461531256	-0.39399295228434167
-0.470609426375006	-0.4031005895817093
-0.470548391218756	-0.41053517941405604
-0.470487356062506	-0.4162651827489413
-0.470426320906256	-0.4202660338549841
-0.470365285750006	-0.4225203358277559
-0.470304250593756	-0.4230178084580322
-0.470243215437506	-0.421755419428175
-0.470182180281256	-0.4187373790301268
-0.470121145125006	-0.4139751097357879
-0.470060109968756	-0.40748723273415155
-0.469999074812506	-0.39929946449055936
-0.469938039656256	-0.38944454425919645
-0.469877004500006	-0.37796207167190216
-0.469815969343756	-0.36489839301310795
-0.469754934187506	-0.3503063636679784
-0.469693899031256	-0.3342451389563383
-0.469632863875006	-0.3167800412677891
-0.469571828718756	-0.29798209005539184
-0.469510793562506	-0.27792788929238477
-0.469449758406256	-0.2566993154105095
-0.469388723250006	-0.2343829851756362
-0.469327688093756	-0.21107018219904725
-0.469266652937506	-0.1868562642651135
-0.469205617781256	-0.16184036291855397
-0.469144582625006	-0.13612504630817218
-0.469083547468756	-0.10981566132477787
-0.469022512312506	-0.08302024500818
-0.468961477156256	-0.055848822749956284
