Time	Frequency
-0.5000250337812489	0.2814438205725196
-0.49996399862499885	0.2694595589423468
-0.49990296346874885	0.25670004574641525
-0.49984192831249885	0.24320051628847933
-0.49978089315624885	0.2289982865438095
-0.49971985799999885	0.21413269306832622
-0.49965882284374885	0.19864496421604488
-0.49959778768749885	0.18257810178543873
-0.49953675253124885	0.1659767730335631
-0.49947571737499885	0.14888717314313676
-0.49941468221874885	0.13135690997081714
-0.49935364706249885	0.11343485633924366
-0.49929261190624885	0.09517101864548638
-0.49923157674999885	0.07661640047300895
-0.49917054159374885	0.05782287038806105
-0.49910950643749885	0.038842970896138695
-0.49904847128124885	0.019729820133484437
-0.49898743612499885	0.0005369673660961489
-0.49892640096874885	-0.018681837015492163
-0.49886536581249885	-0.037872678505451
-0.49880433065624885	-0.05698170775474184
-0.49874329549999885	-0.07595531452643953
-0.49868226034374885	-0.09474015685216039
-0.49862122518749885	-0.11328344886572332
-0.49856019003124885	-0.13153307007625217
-0.49849915487499885	-0.1494376205588818
-0.49843811971874885	-0.16694670172578496
-0.49837708456249885	-0.18401101284340712
-0.49831604940624885	-0.20058240024254673
-0.49825501424999885	-0.2166141455340444
-0.49819397909374885	-0.2320610016827822
-0.49813294393749885	-0.2468792983363308
-0.49807190878124885	-0.2610271913754969
-0.49801087362499885	-0.27446462867333526
-0.49794983846874885	-0.2871535628537632
-0.49788880331249885	-0.2990580529575734
-0.49782776815624885	-0.3101443019674778
-0.49776673299999885	-0.3203808415832712
-0.49770569784374885	-0.32973855467582464
-0.49764466268749885	-0.338190784894781
-0.49758362753124885	-0.3457134195429073
-0.49752259237499885	-0.35228494445523184
-0.49746155721874885	-0.3578865129195197
-0.49740052206249885	-0.36250199715041537
-0.49733948690624885	-0.3661180450412073
-0.49727845174999885	-0.36872410276226686
-0.49721741659374885	-0.37031245958097686
-0.49715638143749885	-0.37087826888053405
-0.49709534628124885	-0.3704195527085052
-0.49703431112499885	-0.3689372242014807
-0.49697327596874885	-0.3664350776508691
-0.49691224081249885	-0.36291977600730024
-0.49685120565624885	-0.35840084500537006
-0.49679017049999885	-0.3528906357914554
-0.49672913534374885	-0.3464042957295779
-0.49666810018749885	-0.33895973359668297
-0.49660706503124885	-0.3305775580003666
-0.49654602987499885	-0.3212810248258932
-0.49648499471874885	-0.31109598727250565
-0.49642395956249885	-0.3000507917478893
-0.49636292440624885	-0.2881762354505765
-0.49630188924999885	-0.27550545951769806
-0.49624085409374885	-0.26207384557150193
-0.49617981893749885	-0.2479189573358593
-0.49611878378124885	-0.233080390009484
-0.49605774862499885	-0.2175996777642601
-0.49599671346874885	-0.20152019155835452
-0.49593567831249885	-0.18488699813222734
-0.49587464315624885	-0.1677467266660895
-0.49581360799999885	-0.1501474709751119
-0.49575257284374885	-0.13213861931133053
-0.49569153768749885	-0.11377072494495546
-0.49563050253124885	-0.09509537538648145
-0.49556946737499885	-0.07616504970710636
-0.49550843221874885	-0.05703292588715268
-0.49544739706249885	-0.037752791660934454
-0.49538636190624885	-0.018378880931369024
-0.49532532674999885	0.00103436717552925
-0.49526429159374885	0.020432301708989378
-0.49520325643749885	0.03976034979405237
-0.49514222128124885	0.05896415202824526
-0.49508118612499885	0.07798961766615947
-0.49502015096874885	0.09678321029119949
-0.49495911581249885	0.11529203347618837
-0.49489808065624885	0.13346394316209567
-0.49483704549999885	0.15124779206319422
-0.49477601034374885	0.16859350878864135
-0.49471497518749885	0.18545221389943348
-0.49465394003124885	0.2017764629411938
-0.49459290487499885	0.21752028157413245
-0.49453186971874885	0.2326393206383875
-0.49447083456249885	0.247091034454805
-0.49440979940624885	0.2608347236450276
-0.49434876424999885	0.2738317178669399
-0.49428772909374885	0.2860454415711823
-0.49422669393749885	0.2974415399607771
-0.49416565878124885	0.3079879925737796
-0.49410462362499885	0.3176551329535168
-0.49404358846874885	0.3264158559121015
-0.49398255331249885	0.3342455802269893
-0.49392151815624885	0.3411223553000163
-0.49386048299999885	0.34702699324692243
-0.49379944784374885	0.35194299384301875
-0.49373841268749885	0.3558567095856889
-0.49367737753124885	0.3587573342027921
-0.49361634237499885	0.3606369161688075
-0.49355530721874885	0.3614904396769864
-0.49349427206249885	0.36131577845338075
-0.49343323690624885	0.3601137455871609
-0.49337220174999885	0.35788807699570624
-0.49331116659374885	0.3546454121957109
-0.49325013143749885	0.35039529984493634
-0.49318909628124885	0.3451501480621515
-0.49312806112499885	0.3389252056681471
-0.49306702596874885	0.3317385111354521
-0.49300599081249885	0.3236108508559496
-0.49294495565624885	0.31456568823731085
-0.49288392049999885	0.3046291065302693
-0.49282288534374885	0.2938297463695635
-0.49276185018749885	0.28219868957126026
-0.49270081503124885	0.26976941598532483
-0.49263977987499885	0.25657768089162364
-0.49257874471874885	0.24266140904906605
-0.49251770956249885	0.22806061816964102
-0.49245667440624885	0.21281727598094566
-0.49239563924999885	0.19697518477253306
-0.49233460409374885	0.18057987852773483
-0.49227356893749885	0.16367846900689806
-0.49221253378124885	0.14631952627293185
-0.49215149862499885	0.12855293461576053
-0.49209046346874885	0.11042974309044586
-0.49202942831249885	0.09200205486769415
-0.49196839315624885	0.07332282190247699
-0.49190735799999885	0.054445748043995455
-0.49184632284374885	0.035425108553778506
-0.49178528768749885	0.01631557808524745
-0.49172425253124885	-0.0028278509696622717
-0.49166321737499885	-0.02195014041777864
-0.49160218221874885	-0.040996267060309705
-0.49154114706249885	-0.05991139350692362
-0.49148011190624885	-0.07864111509571037
-0.49141907674999885	-0.09713145383886596
-0.49135804159374885	-0.11532918018297045
-0.49129700643749885	-0.13318187308837776
-0.49123597128124885	-0.15063803044458432
-0.49117493612499885	-0.1676473783268387
-0.49111390096874885	-0.18416081354833674
-0.49105286581249885	-0.20013069099927577
-0.49099183065624885	-0.21551091785295454
-0.49093079549999885	-0.2302570342520426
-0.49086976034374885	-0.24432645352531243
-0.49080872518749885	-0.25767845072056966
-0.49074769003124885	-0.2702743944659823
-0.49068665487499885	-0.28207780221548284
-0.49062561971874885	-0.2930544254996271
-0.49056458456249885	-0.30317243293444895
-0.49050354940624885	-0.3124023957747564
-0.49044251424999885	-0.32071745606318974
-0.49038147909374885	-0.32809337298178737
-0.49032044393749885	-0.33450857113323174
-0.49025940878124885	-0.3399442679854235
-0.49019837362499885	-0.34438445074219337
-0.49013733846874885	-0.3478159786427572
-0.49007630331249885	-0.350228612538069
-0.49001526815624885	-0.35161501625733804
-0.48995423299999885	-0.35197082257189405
-0.48989319784374885	-0.3512946137035895
-0.48983216268749885	-0.34958793984641556
-0.48977112753124885	-0.3468553189955268
-0.48971009237499885	-0.3431042183386012
-0.48964905721874885	-0.33834503660677223
-0.48958802206249885	-0.3325910820474486
-0.48952698690624885	-0.32585852453609243
-0.48946595174999885	-0.3181663574633901
-0.48940491659374885	-0.30953635228402376
-0.48934388143749885	-0.2999929743767519
-0.48928284628124885	-0.2895633398160553
-0.48922181112499885	-0.2782771300165747
-0.48916077596874885	-0.26616649256274477
-0.48909974081249885	-0.25326598101956227
-0.48903870565624885	-0.2396124300872667
-0.48897767049999885	-0.22524485877375536
-0.48891663534374885	-0.21020437233488848
-0.48885560018749885	-0.1945340252895771
-0.48879456503124885	-0.17827870988192637
-0.48873352987499885	-0.1614850349813861
-0.48867249471874885	-0.1442011717809366
-0.48861145956249885	-0.12647674272362333
-0.48855042440624885	-0.1083626639953304
-0.48848938924999885	-0.0899109902356776
-0.48842835409374885	-0.07117480260841523
-0.48836731893749885	-0.05220800933952253
-0.48830628378124885	-0.033065233518614616
-0.48824524862499885	-0.013801615073928753
-0.48818421346874885	0.005527290298899961
-0.48812317831249885	0.024865736461767853
-0.48806214315624885	0.044157906323765234
-0.48800110799999885	0.06334806201153444
-0.48794007284374885	0.0823807518756106
-0.48787903768749885	0.10120091225143998
-0.48781800253124885	0.11975409883822476
-0.48775696737499885	0.13798653389504242
-0.48769593221874885	0.1558454044297895
-0.48763489706249885	0.1732788732374714
-0.48757386190624885	0.19023631850205547
-0.48751282674999885	0.2066684716122765
-0.48745179159374885	0.22252749879083994
-0.48739075643749885	0.23776724322375203
-0.48732972128124885	0.25234320832653306
-0.48726868612499885	0.2662128861246987
-0.48720765096874885	0.27933568603431774
-0.48714661581249885	0.29167315338908073
-0.48708558065624885	0.3031891258221887
-0.48702454549999885	0.3138496818188922
-0.48696351034374885	0.3236234095129801
-0.48690247518749885	0.33248140468173903
-0.48684144003124885	0.340397358730306
-0.48678040487499885	0.34734766987579124
-0.48671936971874885	0.35331150158868935
-0.48665833456249885	0.3582708173431166
-0.48659729940624885	0.36221047110250804
-0.48653626424999885	0.36511823855226594
-0.48647522909374885	0.36698483372868124
-0.48641419393749885	0.36780398243730156
-0.48635315878124885	0.36757239231442934
-0.48629212362499885	0.3662898025761439
-0.48623108846874885	0.363958966430611
-0.48617005331249885	0.360585649037331
-0.48610901815624885	0.3561786172752344
-0.48604798299999885	0.3507496133417678
-0.48598694784374885	0.34431331891863604
-0.48592591268749885	0.33688732131589183
-0.48586487753124885	0.3284920696718333
-0.48580384237499885	0.31915078597262553
-0.48574280721874885	0.30888946160227965
-0.48568177206249885	0.2977367123998907
-0.48562073690624885	0.2857237461809554
-0.48555970174999885	0.27288427471145743
-0.48549866659374885	0.2592543766828412
-0.48543763143749885	0.2448724438118875
-0.48537659628124885	0.22977904464419163
-0.48531556112499885	0.2140168212213439
-0.48525452596874885	0.19763034832816379
-0.48519349081249885	0.18066604104761558
-0.48513245565624885	0.1631719796019666
-0.48507142049999885	0.14519780655805298
-0.48501038534374885	0.1267945859676196
-0.48494935018749885	0.10801459985521354
-0.48488831503124885	0.08891130010635231
-0.48482727987499885	0.06953906069277974
-0.48476624471874885	0.0499530410989183
-0.48470520956249885	0.030209122202850974
-0.48464417440624885	0.010363581064405809
-0.48458313924999885	-0.009526947728236005
-0.48452210409374885	-0.029405624675599457
-0.48446106893749885	-0.04921570401188748
-0.48440003378124885	-0.0689005330944877
-0.48433899862499885	-0.08840380469572479
-0.48427796346874885	-0.10766973799353857
-0.48421692831249885	-0.12664315404997672
-0.48415589315624885	-0.14526973167276733
-0.48409485799999885	-0.1634960871797582
-0.48403382284374885	-0.18126997338725817
-0.48397278768749885	-0.19854043283492911
-0.48391175253124885	-0.21525787527201
-0.48385071737499885	-0.2313743527778746
-0.48378968221874885	-0.2468435670531354
-0.48372864706249885	-0.26162105482922365
-0.48366761190624885	-0.2756643832352947
-0.48360657674999885	-0.2889331184172258
-0.48354554159374885	-0.30138910990428247
-0.48348450643749885	-0.3129965109987699
-0.48342347128124885	-0.3237218423001984
-0.48336243612499885	-0.33353423819576805
-0.48330140096874885	-0.3424053796782938
-0.48324036581249885	-0.35030964707149026
-0.48317933065624885	-0.35722423479522325
-0.48311829549999885	-0.3631291191526025
-0.48305726034374885	-0.36800720662699704
-0.48299622518749885	-0.3718443477616328
-0.48293519003124885	-0.3746293639742458
-0.48287415487499885	-0.37635412389062217
-0.48281311971874885	-0.3770135254368435
-0.48275208456249885	-0.3766055381180524
-0.48269104940624885	-0.37513120505841224
-0.48263001424999885	-0.3725946309366977
-0.48256897909374885	-0.36900298864526454
-0.48250794393749885	-0.3643664844142822
-0.48244690878124885	-0.3586983405738264
-0.48238587362499885	-0.35201475180461705
-0.48232483846874885	-0.34433484265500947
-0.48226380331249885	-0.3356806186026235
-0.48220276815624885	-0.3260768894920119
-0.48214173299999885	-0.3155512153331317
-0.48208069784374885	-0.3041338199999829
-0.48201966268749885	-0.2918575021650821
-0.48195862753124885	-0.27875755065880026
-0.48189759237499885	-0.26487163424442217
-0.48183655721874885	-0.2502397021675556
-0.48177552206249885	-0.23490385423388302
-0.48171448690624885	-0.21890825194820682
-0.48165345174999885	-0.20229894619723934
-0.48159241659374885	-0.18512378910613764
-0.48153138143749885	-0.16743227529193014
-0.48147034628124885	-0.14927537564592191
-0.48140931112499885	-0.1307054670134083
-0.48134827596874885	-0.1117760620711345
-0.48128724081249885	-0.09254178537943933
-0.48122620565624885	-0.0730581272107969
-0.48116517049999885	-0.05338128798225651
-0.48110413534374885	-0.0335680926101599
-0.48104310018749885	-0.013675703293593919
-0.48098206503124885	0.00623841964643893
-0.48092102987499885	0.026116776199204463
-0.48085999471874885	0.04590195948704448
-0.48079895956249885	0.06553678852404901
-0.48073792440624885	0.08496456001796261
-0.48067688924999885	0.1041291208241021
-0.48061585409374885	0.12297507522972066
-0.48055481893749885	0.1414479707746563
-0.48049378378124885	0.1594943823540065
-0.48043274862499885	0.17706214417897284
-0.48037171346874885	0.19410047367383232
-0.48031067831249885	0.2105600783737581
-0.48024964315624885	0.22639337843792623
-0.48018860799999885	0.24155457877022954
-0.48012757284374885	0.2559998294539466
-0.48006653768749885	0.2696873682463685
-0.48000550253124885	0.28257759846316044
-0.47994446737499885	0.29463325166143706
-0.47988343221874885	0.30581947513808533
-0.47982239706249885	0.31610393329874004
-0.47976136190624885	0.3254568990352343
-0.47970032674999885	0.3338513590324126
-0.47963929159374885	0.3412630799257693
-0.47957825643749885	0.347670664501351
-0.47951722128124885	0.3530556629153775
-0.47945618612499885	0.35740257118498114
-0.47939515096874885	0.36069890687251144
-0.47933411581249885	0.36293525871764226
-0.47927308065624885	0.3641052772096466
-0.47921204549999885	0.3642057314288467
-0.47915101034374885	0.3632364998062514
-0.47908997518749885	0.36120057399536354
-0.47902894003124885	0.35810405875420975
-0.47896790487499885	0.3539561436462636
-0.47890686971874885	0.3487690939242886
-0.47884583456249885	0.34255819405140975
-0.47878479940624885	0.33534172890096625
-0.47872376424999885	0.32714091484668356
-0.47866272909374885	0.31797983598439944
-0.47860169393749885	0.307885405551062
-0.47854065878124885	0.29688723061894506
-0.47847962362499885	0.2850176010394134
-0.47841858846874885	0.2723113408094454
-0.47835755331249885	0.25880570478921744
-0.47829651815624885	0.24454033858784419
-0.47823548299999885	0.22955706611041998
-0.47817444784374885	0.21389985351290583
-0.47811341268749885	0.19761463802159726
-0.47805237753124885	0.18074919194063171
-0.47799134237499885	0.1633530153534634
-0.47793030721874885	0.14547716117869727
-0.47786927206249885	0.1271741138837277
-0.47780823690624885	0.10849758593058241
-0.47774720174999885	0.08950244943926122
-0.47768616659374885	0.0702444928643451
-0.47762513143749885	0.050780279954497985
-0.47756409628124885	0.031167041807026587
-0.47750306112499885	0.011462413330098698
-0.47744202596874885	-0.00827566436932945
-0.47738099081249885	-0.027989107520759303
-0.47731995565624885	-0.04761992554778648
-0.47725892049999885	-0.06711034332498554
-0.47719788534374885	-0.08640293088137231
-0.47713685018749885	-0.10544088076742772
-0.47707581503124885	-0.12416807039137541
-0.47701477987499885	-0.14252926702769075
-0.47695374471874885	-0.16047031966825456
-0.47689270956249885	-0.17793823875858025
-0.47683167440624885	-0.19488145380678312
-0.47677063924999885	-0.21124986645724605
-0.47670960409374885	-0.22699506142237766
-0.47664856893749885	-0.2420704412340315
-0.47658753378124885	-0.25643132126821777
-0.47652649862499885	-0.2700351267555144
-0.47646546346874885	-0.28284145774457936
-0.47640442831249885	-0.2948122510375154
-0.47634339315624885	-0.30591185919204134
-0.47628235799999885	-0.31610719107451435
-0.47622132284374885	-0.3253677871079989
-0.47616028768749885	-0.333665896656599
-0.47609925253124885	-0.34097661464346163
-0.47603821737499885	-0.3472778793227266
-0.47597718221874885	-0.3525506068626832
-0.47591614706249885	-0.35677872013167505
-0.47585511190624885	-0.35994917673496657
-0.47579407674999885	-0.3620520548967317
-0.47573304159374885	-0.3630805439107634
-0.47567200643749885	-0.36303098941715345
-0.47561097128124885	-0.36190289534419084
-0.47554993612499885	-0.35969892740522763
-0.47548890096874885	-0.3564249161373039
-0.47542786581249885	-0.3520898254237238
-0.47536683065624885	-0.3467057467439648
-0.47530579549999885	-0.3402878502301362
-0.47524476034374885	-0.33285434822574295
-0.47518372518749885	-0.3244264490136746
-0.47512269003124885	-0.3150282823086174
-0.47506165487499885	-0.3046868450200286
-0.47500061971874885	-0.2934319159761213
-0.47493958456249885	-0.28129597027737174
-0.47487854940624885	-0.2683140889531792
-0.47481751424999885	-0.2545238525933408
-0.47475647909374885	-0.23996524616775045
-0.47469544393749885	-0.22468051798012223
-0.47463440878124885	-0.20871407935969297
-0.47457337362499885	-0.19211238215641252
-0.47451233846874885	-0.17492373830563884
-0.47445130331249885	-0.1571982450951588
-0.47439026815624885	-0.13898758856851165
-0.47432923299999885	-0.12034490943919021
-0.47426819784374885	-0.10132465225565745
-0.47420716268749885	-0.08198240649465552
-0.47414612753124885	-0.06237473986950878
-0.47408509237499885	-0.04255901167197578
-0.47402405721874885	-0.02259328301298351
-0.47396302206249885	-0.0025360266582532182
-0.47390198690624885	0.017553952357314776
-0.47384095174999885	0.03761768449849471
-0.47377991659374885	0.05759629691196091
-0.47371888143749885	0.0774310973803187
-0.47365784628124885	0.09706377190726688
-0.47359681112499885	0.11643657873662376
-0.47353577596874885	0.1354925109793815
-0.47347474081249885	0.15417541450592484
-0.47341370565624885	0.17243023657765685
-0.47335267049999885	0.19020314023297005
-0.47329163534374885	0.20744162212090123
-0.47323060018749885	0.22409478441643707
-0.47316956503124885	0.2401133572514431
-0.47310852987499885	0.2554499202171859
-0.47304749471874885	0.27005904034739675
-0.47298645956249885	0.283897355437042
-0.47292542440624885	0.2969237548820799
-0.47286438924999885	0.30909949643161
-0.47280335409374885	0.3203882920142503
-0.47274231893749885	0.33075641030004777
-0.47268128378124885	0.3401728664952779
-0.47262024862499885	0.3486093677303678
-0.47255921346874885	0.35604052425174804
-0.47249817831249885	0.36244388579663595
-0.47243714315624885	0.3677999526071469
-0.47237610799999885	0.37209234601779057
-0.47231507284374885	0.37530775105580894
-0.47225403768749885	0.37743602023956874
-0.47219300253124885	0.3784701894171658
-0.47213196737499885	0.37840649277091315
-0.47207093221874885	0.3772443820163966
-0.47200989706249885	0.3749865333615556
-0.47194886190624885	0.37163883343247867
-0.47188782674999885	0.36721036930136913
-0.47182679159374885	0.36171340303454436
-0.47176575643749885	0.35516333406579037
-0.47170472128124885	0.34757866411658367
-0.47164368612499885	0.3389809280686645
-0.47158265096874885	0.32939466019594843
-0.47152161581249885	0.31884729015589275
-0.47146058065624885	0.3073690931446633
-0.47139954549999885	0.29499307759620114
-0.47133851034374885	0.28175492132992497
-0.47127747518749885	0.2676928333365985
-0.47121644003124885	0.25284745705252515
-0.47115540487499885	0.23726177894525072
-0.47109436971874885	0.2209809394948794
-0.47103333456249885	0.20405218417118234
-0.47097229940624885	0.1865246471580557
-0.47091126424999885	0.16844925936860347
-0.47085022909374885	0.14987859414614166
-0.47078919393749885	0.1308666748111976
-0.47072815878124885	0.11146887128672676
-0.47066712362499885	0.09174170424260765
-0.47060608846874885	0.0717426756446262
-0.47054505331249885	0.05153013267863197
-0.47048401815624885	0.031163053075553032
-0.47042298299999885	0.01070091330950508
