Time	Frequency
-0.500022887781256	0.4222894556881063
-0.49996185262500603	0.4276369967472472
-0.49990081746875603	0.431285696179499
-0.49983978231250603	0.43321929374498525
-0.49977874715625603	0.43342852637150237
-0.49971771200000603	0.43191113893165833
-0.49965667684375603	0.42867186355830816
-0.49959564168750603	0.4237224545849945
-0.49953460653125603	0.41708162922023173
-0.49947357137500603	0.4087749648580388
-0.49941253621875603	0.39883484703171845
-0.49935150106250603	0.38730031731004655
-0.49929046590625603	0.3742168868981232
-0.49922943075000603	0.3596364291236565
-0.49916839559375603	0.34361690670269784
-0.49910736043750603	0.3262221371000812
-0.49904632528125603	0.30752161681372675
-0.49898529012500603	0.28759011899057724
-0.49892425496875603	0.26650747771180117
-0.49886321981250603	0.24435828630941772
-0.49880218465625603	0.22123140372328925
-0.49874114950000603	0.1972198203699196
-0.49868011434375603	0.17242009703784586
-0.49861907918750603	0.1469319958193785
-0.49855804403125603	0.1208582299318996
-0.49849700887500603	0.09430382397561332
-0.49843597371875603	0.06737583933727664
-0.49837493856250603	0.04018289828450098
-0.49831390340625603	0.012834701480710097
-0.49825286825000603	-0.014558327570670179
-0.49819183309375603	-0.041885626602974124
-0.49813079793750603	-0.06903682435278069
-0.49806976278125603	-0.09590219976219522
-0.49800872762500603	-0.12237326535407064
-0.49794769246875603	-0.14834305098336656
-0.49788665731250603	-0.17370658756247362
-0.49782562215625603	-0.19836137573992
-0.49776458700000603	-0.22220784442233354
-0.49770355184375603	-0.24514957262440756
-0.49764251668750603	-0.2670938729170337
-0.49758148153125603	-0.2879522011114449
-0.49752044637500603	-0.30764020723299235
-0.49745941121875603	-0.32607851513116215
-0.49739837606250603	-0.34319274667014676
-0.49733734090625603	-0.358913857388676
-0.49727630575000603	-0.37317862874099733
-0.49721527059375603	-0.38592962895007943
-0.49715423543750603	-0.39711567205553594
-0.49709320028125603	-0.4066919796044165
-0.49703216512500603	-0.41462029453940036
-0.49697112996875603	-0.42086910302295893
-0.49691009481250603	-0.4254137773088994
-0.49684905965625603	-0.4282366344808809
-0.49678802450000603	-0.4293270187320108
-0.49672698934375603	-0.42868138942894085
-0.49666595418750603	-0.4263032858735806
-0.49660491903125603	-0.4222033441197791
-0.49654388387500603	-0.41639924314432875
-0.49648284871875603	-0.4089156508859288
-0.49642181356250603	-0.3997840995679461
-0.49636077840625603	-0.38904288049882424
-0.49629974325000603	-0.3767368945532449
-0.49623870809375603	-0.3629174124471745
-0.49617767293750603	-0.3476419761409839
-0.49611663778125603	-0.33097405050944856
-0.49605560262500603	-0.31298280737856654
-0.49599456746875603	-0.2937428992331774
-0.49593353231250603	-0.2733340545433981
-0.49587249715625603	-0.25184083649943523
-0.49581146200000603	-0.22935221297481898
-0.49575042684375603	-0.20596131049215136
-0.49568939168750603	-0.18176491453486848
-0.49562835653125603	-0.15686310906796982
-0.49556732137500603	-0.13135894426379055
-0.49550628621875603	-0.10535787057417759
-0.49544525106250603	-0.07896745566590235
-0.49538421590625603	-0.0522968044084355
-0.49532318075000603	-0.025456216705095635
-0.49526214559375603	0.0014432990917818396
-0.49520111043750603	0.028290531611844943
-0.49514007528125603	0.054974455949208106
-0.49507904012500603	0.08138469303398847
-0.49501800496875603	0.10741202426830643
-0.49495696981250603	0.1329488405485905
-0.49489593465625603	0.15788943853947324
-0.49483489950000603	0.1821306632238831
-0.49477386434375603	0.20557226576128415
-0.49471282918750603	0.22811717509962892
-0.49465179403125603	0.24967208130774535
-0.49459075887500603	0.27014784786360274
-0.49452972371875603	0.2894596070068443
-0.49446868856250603	0.30752740261718725
-0.49440765340625603	0.3242764588937619
-0.49434661825000603	0.3396373116610485
-0.49428558309375603	0.35354634022761766
-0.49422454793750603	0.36594586712093596
-0.49416351278125603	0.37678448522170616
-0.49410247762500603	0.3860172146878576
-0.49404144246875603	0.393605709191198
-0.49398040731250603	0.39951847534387747
-0.49391937215625603	0.4037309001322837
-0.49385833700000603	0.40622542400361394
-0.49379730184375603	0.4069916230608599
-0.49373626668750603	0.4060262152619
-0.49367523153125603	0.4033330887027856
-0.49361419637500603	0.39892332272759096
-0.49355316121875603	0.39281509202511766
-0.49349212606250603	0.38503363377479716
-0.49343109090625603	0.3756111351752602
-0.49337005575000603	0.36458659123284326
-0.49330902059375603	0.35200567833038804
-0.49324798543750603	0.33792051443081333
-0.49318695028125603	0.3223895201696874
-0.49312591512500603	0.3054771139269032
-0.49306487996875603	0.2872534663978149
-0.49300384481250603	0.26779426214994007
-0.49294280965625603	0.24718030071757197
-0.49288177450000603	0.2254972444544032
-0.49282073934375603	0.20283522383408192
-0.49275970418750603	0.1792884821383129
-0.49269866903125603	0.15495497312177497
-0.49263763387500603	0.12993598000590173
-0.49257659871875603	0.10433568692535118
-0.49251556356250603	0.07826073165887824
-0.49245452840625603	0.05181982221636071
-0.49239349325000603	0.02512318490040964
-0.49233245809375603	-0.0017177776516547956
-0.49227142293750603	-0.028590988350779386
-0.49221038778125603	-0.05538420533148115
-0.49214935262500603	-0.08198545404703932
-0.49208831746875603	-0.10828343179643644
-0.49202728231250603	-0.13416804845343017
-0.49196624715625603	-0.15953091413752282
-0.49190521200000603	-0.18426562157770573
-0.49184417684375603	-0.20826839785848805
-0.49178314168750603	-0.231438382479527
-0.49172210653125603	-0.25367810889260756
-0.49166107137500603	-0.274893934290238
-0.49160003621875603	-0.2949963192843512
-0.49153900106250603	-0.3139003896482669
-0.49147796590625603	-0.3315260771096305
-0.49141693075000603	-0.3477986086756678
-0.49135589559375603	-0.3626487870234089
-0.49129486043750603	-0.37601318370232123
-0.49123382528125603	-0.38783457122822484
-0.49117279012500603	-0.3980620352281217
-0.49111175496875603	-0.4066512129260296
-0.49105071981250603	-0.41356452411654276
-0.49098968465625603	-0.41877131275386636
-0.49092864950000603	-0.42224794449300923
-0.49086761434375603	-0.4239779407605731
-0.49080657918750603	-0.42395207281202574
-0.49074554403125603	-0.4221683489918471
-0.49068450887500603	-0.41863206020395405
-0.49062347371875603	-0.41335577911297766
-0.49056243856250603	-0.4063592780226392
-0.49050140340625603	-0.3976694629956384
-0.49044036825000603	-0.38732028669130736
-0.49037933309375603	-0.37535258781231695
-0.49031829793750603	-0.36181393500865977
-0.49025726278125603	-0.3467584335685877
-0.49019622762500603	-0.3302465182231875
-0.49013519246875603	-0.312344687831367
-0.49007415731250603	-0.29312523301763477
-0.49001312215625603	-0.27266597159631595
-0.48995208700000603	-0.2510499001272607
-0.48989105184375603	-0.22836483881261255
-0.48983001668750603	-0.2047031258843234
-0.48976898153125603	-0.18016121027528748
-0.48970794637500603	-0.15483919437644597
-0.48964691121875603	-0.12884055685953874
-0.48958587606250603	-0.10227160955408274
-0.48952484090625603	-0.07524105082445767
-0.48946380575000603	-0.047859671569597285
-0.48940277059375603	-0.02023970563720899
-0.48934173543750603	0.00750555478244058
-0.48928070028125603	0.03526213777368582
-0.48921966512500603	0.06291604423025884
-0.48915862996875603	0.09035358365920367
-0.48909759481250603	0.11746185409439044
-0.48903655965625603	0.1441292891359806
-0.48897552450000603	0.17024605412224453
-0.48891448934375603	0.19570453810944974
-0.48885345418750603	0.2203997157299928
-0.48879241903125603	0.24422974396603506
-0.48873138387500603	0.2670962606125112
-0.48867034871875603	0.2889047552586943
-0.48860931356250603	0.3095651542344672
-0.48854827840625603	0.32899199200129325
-0.48848724325000603	0.34710485310855715
-0.48842620809375603	0.3638287620254276
-0.48836517293750603	0.3790943944234988
-0.48830413778125603	0.3928384059006982
-0.48824310262500603	0.4050037517037427
-0.48818206746875603	0.4155398489368849
-0.48812103231250603	0.42440280395219787
-0.48805999715625603	0.4315556660205588
-0.48799896200000603	0.4369684917872257
-0.48793792684375603	0.44061851421392056
-0.48787689168750603	0.4424902730984315
-0.48781585653125603	0.44257561555180214
-0.48775482137500603	0.4408737772540987
-0.48769378621875603	0.43739139864675036
-0.48763275106250603	0.43214245059726347
-0.48757171590625603	0.4251482352745141
-0.48751068075000603	0.4164372667635285
-0.48744964559375603	0.4060451708789051
-0.48738861043750603	0.3940145343076468
-0.48732757528125603	0.38039472214868825
-0.48726654012500603	0.3652417204312976
-0.48720550496875603	0.34861783399288915
-0.48714446981250603	0.3305914870490761
-0.48708343465625603	0.3112369268928541
-0.48702239950000603	0.29063392381829
-0.48696136434375603	0.268867418449656
-0.48690032918750603	0.24602716362566765
-0.48683929403125603	0.22220746815571887
-0.48677825887500603	0.19750661520830518
-0.48671722371875603	0.17202656164855445
-0.48665618856250603	0.14587263648959722
-0.48659515340625603	0.11915281560467758
-0.48653411825000603	0.09197751024452631
-0.48647308309375603	0.06445909026725655
-0.48641204793750603	0.036711241002577354
-0.48635101278125603	0.008848724986136397
-0.48628997762500603	-0.019013244237927097
-0.48622894246875603	-0.04675948524919103
-0.48616790731250603	-0.07427522367294183
-0.48610687215625603	-0.10144664172408817
-0.48604583700000603	-0.1281613745032652
-0.48598480184375603	-0.1543089398380661
-0.48592376668750603	-0.1797811608433355
-0.48586273153125603	-0.20447269421356576
-0.48580169637500603	-0.22828145390676452
-0.48574066121875603	-0.2511089765396944
-0.48567962606250603	-0.2728608985631752
-0.48561859090625603	-0.29344733729082595
-0.48555755575000603	-0.31278322709475
-0.48549652059375603	-0.33078872739060666
-0.48543548543750603	-0.34738954952792966
-0.48537445028125603	-0.3625172246200558
-0.48531341512500603	-0.3761093995753912
-0.48525237996875603	-0.388110202558577
-0.48519134481250603	-0.39847032808911986
-0.48513030965625603	-0.40714729261610816
-0.48506927450000603	-0.4141057224109788
-0.48500823934375603	-0.4193173267291705
-0.48494720418750603	-0.42276114300838274
-0.48488616903125603	-0.42442360465571494
-0.48482513387500603	-0.4242985495634295
-0.48476409871875603	-0.4223873121859013
-0.48470306356250603	-0.41869867880589273
-0.48464202840625603	-0.4132488725728883
-0.48458099325000603	-0.4060614774982486
-0.48451995809375603	-0.3971673519317229
-0.48445892293750603	-0.38660449550685555
-0.48439788778125603	-0.3744178915520838
-0.48433685262500603	-0.3606593381450851
-0.48427581746875603	-0.3453871929167357
-0.48421478231250603	-0.32866619087171417
-0.48415374715625603	-0.31056712601951286
-0.48409271200000603	-0.291166563285544
-0.48403167684375603	-0.2705465686499378
-0.48397064168750603	-0.24879429422117305
-0.48390960653125603	-0.2260016663269875
-0.48384857137500603	-0.2022649886877191
-0.48378753621875603	-0.1776845570399736
-0.48372650106250603	-0.15236417537377098
-0.48366546590625603	-0.12641082387163885
-0.48360443075000603	-0.09993415195660732
-0.48354339559375603	-0.07304596753223762
-0.48348236043750603	-0.04585993358433312
-0.48342132528125603	-0.018490881373894246
-0.48336029012500603	0.008945494498241993
-0.48329925496875603	0.03633318584874874
-0.48323821981250603	0.06355643905482776
-0.48317718465625603	0.09050006020366136
-0.48311614950000603	0.11705006203257337
-0.48305511434375603	0.14309408168819285
-0.48299407918750603	0.16852181507438446
-0.48293304403125603	0.19322553347946914
-0.48287200887500603	0.21710056840038158
-0.48281097371875603	0.24004562201645074
-0.48274993856250603	0.2619632970722866
-0.48268890340625603	0.28276056929112303
-0.48262786825000603	0.3023489758687857
-0.48256683309375603	0.3206451678794832
-0.48250579793750603	0.3375712289694083
-0.48244476278125603	0.35305492887795453
-0.48238372762500603	0.3670301057487335
-0.48232269246875603	0.3794369270060439
-0.48226165731250603	0.39022213121361427
-0.48220062215625603	0.39933925442565055
-0.48213958700000603	0.40674885240143666
-0.48207855184375603	0.4124186373608405
-0.48201751668750603	0.41632365440136465
-0.48195648153125603	0.41844635650653034
-0.48189544637500603	0.41877668464292284
-0.48183441121875603	0.41731215513981407
-0.48177337606250603	0.41405781872037234
-0.48171234090625603	0.4090262731046039
-0.48165130575000603	0.4022376119899811
-0.48159027059375603	0.3937193558969073
-0.48152923543750603	0.3835062895805541
-0.48146820028125603	0.371640396160536
-0.48140716512500603	0.3581706430225218
-0.48134612996875603	0.3431527218224789
-0.48128509481250603	0.32664899190901914
-0.48122405965625603	0.3087279939063612
-0.48116302450000603	0.28946432808777184
-0.48110198934375603	0.2689383576301022
-0.48104095418750603	0.2472356763321669
-0.48097991903125603	0.2244470002122188
-0.48091888387500603	0.20066766101109634
-0.48085784871875603	0.17599716548503977
-0.48079681356250603	0.15053889855605043
-0.48073577840625603	0.124399620789452
-0.48067474325000603	0.09768897463798784
-0.48061370809375603	0.07051918401921603
-0.48055267293750603	0.043004406096076336
-0.48049163778125603	0.015260285393103453
-0.48043060262500603	-0.012596332845201641
-0.48036956746875603	-0.040448187753991
-0.48030853231250603	-0.06817796102740666
-0.48024749715625603	-0.09566865124015644
-0.48018646200000603	-0.12280427705047307
-0.48012542684375603	-0.14947027237438376
-0.48006439168750603	-0.17555391945326243
-0.48000335653125603	-0.2009448867526163
-0.47994232137500603	-0.225535693852394
-0.47988128621875603	-0.24922217206949854
-0.47982025106250603	-0.27190380758784893
-0.47975921590625603	-0.29348432819946235
-0.47969818075000603	-0.3138719907260208
-0.47963714559375603	-0.33297996584701833
-0.47957611043750603	-0.35072683508474795
-0.47951507528125603	-0.3670367570918602
-0.47945404012500603	-0.381839932011268
-0.47939300496875603	-0.39507283659216147
-0.47933196981250603	-0.4066784942000627
-0.47927093465625603	-0.4166067440388211
-0.47920989950000603	-0.42481442493734345
-0.47914886434375603	-0.4312656152073026
-0.47908782918750603	-0.43593169911033275
-0.47902679403125603	-0.43879158271357416
-0.47896575887500603	-0.4398317539421873
-0.47890472371875603	-0.43904629730952094
-0.47884368856250603	-0.436437010900986
-0.47878265340625603	-0.4320133350736109
-0.47872161825000603	-0.42579233999422467
-0.47866058309375603	-0.41779866755431944
-0.47859954793750603	-0.4080644145588966
-0.47853851278125603	-0.39662902056873495
-0.47847747762500603	-0.38353908759643884
-0.47841644246875603	-0.36884819677371244
-0.47835540731250603	-0.3526166966873945
-0.47829437215625603	-0.334911442192563
-0.47823333700000603	-0.3158055036242697
-0.47817230184375603	-0.2953778943241747
-0.47811126668750603	-0.2737132254625806
-0.47805023153125603	-0.2509013419329321
-0.47798919637500603	-0.2270369624171899
-0.47792816121875603	-0.20221927257140054
-0.47786712606250603	-0.17655153717616587
-0.47780609090625603	-0.15014061873838655
-0.47774505575000603	-0.1230965649345388
-0.47768402059375603	-0.09553217655166846
-0.47762298543750603	-0.0675624102469226
-0.47756195028125603	-0.03930407497613172
-0.47750091512500603	-0.010875224270058088
-0.47743987996875603	0.01760541611914627
-0.47737884481250603	0.04601866822572227
-0.47731780965625603	0.07424570622473313
-0.47725677450000603	0.10216848802601812
-0.47719573934375603	0.12967002059183194
-0.47713470418750603	0.15663517969171697
-0.47707366903125603	0.1829510268857027
-0.47701263387500603	0.20850724455067496
-0.47695159871875603	0.23319674997634304
-0.47689056356250603	0.25691599993230346
-0.47682952840625603	0.2795655320264982
-0.47676849325000603	0.30105033876749915
-0.47670745809375603	0.3212802710840061
-0.47664642293750603	0.3401704456124633
-0.47658538778125603	0.35764157537302294
-0.47652435262500603	0.3736203254196577
-0.47646331746875603	0.3880396259070938
-0.47640228231250603	0.4008389468938106
-0.47634124715625603	0.41196455229781603
-0.47628021200000603	0.4213697745136927
-0.47621917684375603	0.42901513120499973
-0.47615814168750603	0.43486857821155156
-0.47609710653125603	0.43890561613852747
-0.47603607137500603	0.44110935606208485
-0.47597503621875603	0.44147068024120995
-0.47591400106250603	0.4399882151429698
-0.47585296590625603	0.4366683480678825
-0.47579193075000603	0.431525243267145
-0.47573089559375603	0.4245807482750051
-0.47566986043750603	0.4158643112951101
-0.47560882528125603	0.4054128673742081
-0.47554779012500603	0.39327069307018514
-0.47548675496875603	0.37948920568952416
-0.47542571981250603	0.36412672826779546
-0.47536468465625603	0.3472483325535988
-0.47530364950000603	0.32892546839501785
-0.47524261434375603	0.3092356675422804
-0.47518157918750603	0.28826233934969187
-0.47512054403125603	0.266094275308539
-0.47505950887500603	0.24282531770173907
-0.47499847371875603	0.21855404321248612
-0.47493743856250603	0.193383251266161
-0.47487640340625603	0.167419542727758
-0.47481536825000603	0.14077292652676726
-0.47475433309375603	0.11355631288050952
-0.47469329793750603	0.08588504638720218
-0.47463226278125603	0.05787639451683438
-0.47457122762500603	0.02964909078173272
-0.47451019246875603	0.0013228473191461243
-0.47444915731250603	-0.02698227935564262
-0.47438812215625603	-0.05514618725728298
-0.47432708700000603	-0.08304941251192538
-0.47426605184375603	-0.11057362368309734
-0.47420501668750603	-0.1376019369917696
-0.47414398153125603	-0.16401971025787745
-0.47408294637500603	-0.18971479399744376
-0.47402191121875603	-0.21457802426369826
-0.47396087606250603	-0.23850391127759896
-0.47389984090625603	-0.26139078261308696
-0.47383880575000603	-0.2831413764471164
-0.47377777059375603	-0.3036633625619643
-0.47371673543750603	-0.32286944619046887
-0.47365570028125603	-0.34067798748048794
-0.47359466512500603	-0.35701332034511957
-0.47353362996875603	-0.3718059272333526
-0.47347259481250603	-0.3849928813261883
-0.47341155965625603	-0.3965180910069618
-0.47335052450000603	-0.40633249745355265
-0.47328948934375603	-0.41439430020329393
-0.47322845418750603	-0.42066917723841196
-0.47316741903125603	-0.4251303715643203
-0.47310638387500603	-0.42775886673971875
-0.47304534871875603	-0.42854343804741785
-0.47298431356250603	-0.42748068724461397
-0.47292327840625603	-0.42457512472680065
-0.47286224325000603	-0.4198390812341232
-0.47280120809375603	-0.4132926902169034
-0.47274017293750603	-0.4049638295466307
-0.47267913778125603	-0.39488795771887686
-0.47261810262500603	-0.38310799207999
-0.47255706746875603	-0.36967415355368366
-0.47249603231250603	-0.35464369150380015
-0.47243499715625603	-0.3380807079006978
-0.47237396200000603	-0.3200558729806221
-0.47231292684375603	-0.30064606805041655
-0.47225189168750603	-0.27993415932485866
-0.47219085653125603	-0.25800858461661114
-0.47212982137500603	-0.23496296516068463
-0.47206878621875603	-0.21089576117775774
-0.47200775106250603	-0.18590983667074748
-0.47194671590625603	-0.16011199292259373
-0.47188568075000603	-0.13361253663661388
-0.47182464559375603	-0.10652484717848228
-0.47176361043750603	-0.07896483237562842
-0.47170257528125603	-0.05105047401390229
-0.47164154012500603	-0.022901281983064077
-0.47158050496875603	0.005362126733754563
-0.47151946981250603	0.03361857683017906
-0.47145843465625603	0.06174699766582482
-0.47139739950000603	0.08962668463587259
-0.47133636434375603	0.11713793722321772
-0.47127532918750603	0.1441627089690791
-0.47121429403125603	0.17058483933262586
-0.47115325887500603	0.19629070290701664
-0.47109222371875603	0.22116979581596768
-0.47103118856250603	0.24511495706990644
-0.47097015340625603	0.268023015170642
-0.47090911825000603	0.28979522543669317
-0.47084808309375603	0.31033757184360783
-0.47078704793750603	0.3295612970191717
-0.47072601278125603	0.34738320871412043
-0.47066497762500603	0.36372608101918336
-0.47060394246875603	0.3785189631080901
-0.47054290731250603	0.3916974865290963
-0.47048187215625603	0.4032041483107278
-0.47042083700000603	0.41298856403969847
