Time	Frequency
-0.500056028000003	8.191787533777485e-25
-0.49999499284375304	7.661496964952081e-25
-0.49993395768750304	7.099194176415023e-25
-0.49987292253125304	6.50721863936471e-25
-0.49981188737500304	5.8880333499742925e-25
-0.49975085221875304	5.244214389520623e-25
-0.49968981706250304	4.578442295047562e-25
-0.49962878190625304	3.893487264986771e-25
-0.49956774675000304	3.1922013620817173e-25
-0.49950671159375304	2.4775055031816224e-25
-0.49944567643750304	1.7523762217122464e-25
-0.49938464128125304	1.0198349549968987e-25
-0.49932360612500304	2.829348457760545e-26
-0.49926257096875304	-4.552511879082425e-26
-0.49920153581250304	-1.1916450344560858e-25
-0.49914050065625304	-1.9231734486729124e-25
-0.49907946550000304	-2.6467825286610413e-25
-0.49901843034375304	-3.359450998538197e-25
-0.49895739518750304	-4.0582001044687e-25
-0.49889636003125304	-4.7401089635241875e-25
-0.49883532487500304	-5.402324527529805e-25
-0.49877428971875304	-6.042074469232946e-25
-0.49871325456250304	-6.65667887415529e-25
-0.49865221940625304	-7.243559833938692e-25
-0.49859118425000304	-7.800255369649005e-25
-0.49853014909375304	-8.324425539513874e-25
-0.49846911393750304	-8.813864716051935e-25
-0.49840807878125304	-9.266512593579677e-25
-0.49834704362500304	-9.680457536005043e-25
-0.49828600846875304	-1.0053949025436339e-24
-0.49822497331250304	-1.0385404670381495e-24
-0.49816393815625304	-1.0673414130552294e-24
-0.49810290300000304	-1.0916747353622225e-24
-0.49804186784375304	-1.1114359579452209e-24
-0.49798083268750304	-1.126539505194881e-24
-0.49791979753125304	-1.1369190765877527e-24
-0.49785876237500304	-1.142527990107432e-24
-0.49779772721875304	-1.1433393595281088e-24
-0.49773669206250304	-1.1393461698762388e-24
-0.49767565690625304	-1.1305613718796691e-24
-0.49761462175000304	-1.1170178619558658e-24
-0.49755358659375304	-1.0987682778088888e-24
-0.49749255143750304	-1.0758848467076808e-24
-0.49743151628125304	-1.0484591069031094e-24
-0.49737048112500304	-1.0166014991550334e-24
-0.49730944596875304	-9.804409368935569e-25
-0.49724841081250304	-9.401243120076537e-25
-0.49718737565625304	-8.958158588499857e-25
-0.49712634050000304	-8.476964585275629e-25
-0.49706530534375304	-7.959630188780167e-25
-0.49700427018750304	-7.408275094764059e-25
-0.49694323503125304	-6.825161747100585e-25
-0.49688219987500304	-6.2126866238375125e-25
-0.49682116471875304	-5.573368962162063e-25
-0.49676012956250304	-4.909841605088968e-25
-0.49669909440625304	-4.224839505465028e-25
-0.49663805925000304	-3.52118865536177e-25
-0.49657702409375304	-2.8017946089071575e-25
-0.49651598893750304	-2.0696299327708465e-25
-0.49645495378125304	-1.3277225309546357e-25
-0.49639391862500304	-5.791428273728619e-26
-0.49633288346875304	1.7300886514533722e-26
-0.49627184831250304	9.256155008593846e-26
-0.49621081315625304	1.6755559929792529e-25
-0.49614977800000304	2.41971774639681e-25
-0.49608874284375304	3.1550090341994565e-25
-0.49602770768750304	3.8783752913671224e-25
-0.49596667253125304	4.586808264935709e-25
-0.49590563737500304	5.2773562114817885e-25
-0.49584460221875304	5.947144695994e-25
-0.49578356706250304	6.593381415158948e-25
-0.49572253190625304	7.213366712334546e-25
-0.49566149675000304	7.804512096833244e-25
-0.49560046159375304	8.364345954182736e-25
-0.49553942643750304	8.890522388706892e-25
-0.49547839128125304	9.380835708374966e-25
-0.49541735612500304	9.833226921706797e-25
-0.49535632096875304	1.0245791842928493e-24
-0.49529528581250304	1.0616791549285804e-24
-0.49523425065625304	1.0944656493509777e-24
-0.49517321550000304	1.1227996234898645e-24
-0.49511218034375304	1.1465603514816722e-24
-0.49505114518750304	1.1656458713657322e-24
-0.49499011003125304	1.1799736916395488e-24
-0.49492907487500304	1.1894808562443653e-24
-0.49486803971875304	1.194124372813528e-24
-0.49480700456250304	1.1938813890516489e-24
-0.49474596940625304	1.188749227834773e-24
-0.49468493425000304	1.1787455130689785e-24
-0.49462389909375304	1.1639080234251548e-24
-0.49456286393750304	1.1442945869993335e-24
-0.49450182878125304	1.1199828403912403e-24
-0.49444079362500304	1.091069932779483e-24
-0.49437975846875304	1.057672111903409e-24
-0.49431872331250304	1.0199242628524663e-24
-0.49425768815625304	9.779793816092164e-25
-0.49419665300000304	9.320078628004883e-25
-0.49413561784375304	8.82196992197036e-25
-0.49407458268750304	8.287498942783883e-25
-0.49401354753125304	7.718849286097913e-25
-0.49395251237500304	7.118348447277237e-25
-0.49389147721875304	6.488453980792182e-25
-0.49383044206250304	5.8317493083660325e-25
-0.49376940690625304	5.150929148759556e-25
-0.49370837175000304	4.448787634970127e-25
-0.49364733659375304	3.7282114486823894e-25
-0.49358630143750304	2.992162985989483e-25
-0.49352526628125304	2.243669765906706e-25
-0.49346423112500304	1.4858135993742195e-25
-0.49340319596875304	7.217146648186163e-26
-0.49334216081250304	-4.547829106014231e-27
-0.49328112565625304	-8.126031324381518e-26
-0.49322009050000304	-1.576497864482256e-25
-0.49315905534375304	-2.334010354681061e-25
-0.49309802018750304	-3.082015976850307e-25
-0.49303698503125304	-3.817427999252213e-25
-0.49297594987500304	-4.537209918447512e-25
-0.49291491471875304	-5.238389596316747e-25
-0.49285387956250304	-5.91807219125385e-25
-0.49279284440625304	-6.573449843424475e-25
-0.49273180925000304	-7.20181402826997e-25
-0.49267077409375304	-7.800570680744726e-25
-0.49260973893750304	-8.367244372156159e-25
-0.49254870378125304	-8.899493526369738e-25
-0.49248766862500304	-9.395120160522824e-25
-0.49242663346875304	-9.85207557790421e-25
-0.49236559831250304	-1.026847264433354e-24
-0.49230456315625304	-1.064259173606687e-24
-0.49224352800000304	-1.0972888862975161e-24
-0.49218249284375304	-1.1258000841704119e-24
-0.49212145768750304	-1.1496752889272493e-24
-0.49206042253125304	-1.1688162827757358e-24
-0.49199938737500304	-1.183144368490427e-24
-0.49193835221875304	-1.1926010060911687e-24
-0.49187731706250304	-1.1971478175643947e-24
-0.49181628190625304	-1.1967668338189106e-24
-0.49175524675000304	-1.1914606382270223e-24
-0.49169421159375304	-1.181252237297792e-24
-0.49163317643750304	-1.1661850983247038e-24
-0.49157214128125304	-1.1463229072894627e-24
-0.49151110612500304	-1.1217492709928372e-24
-0.49145007096875304	-1.0925675243302884e-24
-0.49138903581250304	-1.0589001225875365e-24
-0.49132800065625304	-1.0208882292933017e-24
-0.49126696550000304	-9.786912241721412e-25
-0.49120593034375304	-9.324858071066764e-25
-0.49114489518750304	-8.824654837675253e-25
-0.49108386003125304	-8.288397361086816e-25
-0.49102282487500304	-7.718329795969037e-25
-0.49096178971875304	-7.116838180827755e-25
-0.49090075456250304	-6.48644073408629e-25
-0.49083971940625304	-5.829774836621586e-25
-0.49077868425000304	-5.149588966735995e-25
-0.49071764909375304	-4.4487301995003535e-25
-0.49065661393750304	-3.7301306216918403e-25
-0.49059557878125304	-2.9967988391243827e-25
-0.49053454362500304	-2.2518036054091144e-25
-0.49047350846875304	-1.4982629050854428e-25
-0.49041247331250304	-7.393318724663272e-26
-0.49035143815625304	2.1813272021596946e-27
-0.49029040300000304	7.819858541216454e-26
-0.49022936784375304	1.538003254454744e-25
-0.49016833268750304	2.286699757064936e-25
-0.49010729753125304	3.024940051975225e-25
-0.49004626237500304	3.749633569149935e-25
-0.48998522721875304	4.457744721081583e-25
-0.48992419206250304	5.146306891298619e-25
-0.48986315690625304	5.812437461236406e-25
-0.48980212175000304	6.453345531548764e-25
-0.48974108659375304	7.0663455015865045e-25
-0.48968005143750304	7.648870690251429e-25
-0.48961901628125304	8.198479658479127e-25
-0.48955798112500304	8.71287038513016e-25
-0.48949694596875304	9.189888064816935e-25
-0.48943591081250304	9.6275334892776e-25
-0.48937487565625304	1.0023974601159811e-24
-0.48931384050000304	1.0377550491599235e-24
-0.48925280534375304	1.068678037461209e-24
-0.48919177018750304	1.0950370583702106e-24
-0.48913073503125304	1.11672181072961e-24
-0.48906969987500304	1.1336416468765665e-24
-0.48900866471875304	1.1457259903409221e-24
-0.48894762956250304	1.1529245325775975e-24
-0.48888659440625304	1.1552075381188622e-24
-0.48882555925000304	1.152565963497242e-24
-0.48876452409375304	1.1450114475718477e-24
-0.48870348893750304	1.1325763594995253e-24
-0.48864245378125304	1.1153135878154903e-24
-0.48858141862500304	1.093296383772425e-24
-0.48852038346875304	1.0666180353656891e-24
-0.48845934831250304	1.0353914781123379e-24
-0.48839831315625304	9.997488574523794e-25
-0.48833727800000304	9.598409491274437e-25
-0.48827624284375304	9.158365534595446e-25
-0.48821520768750304	8.6792174892833e-25
-0.48815417253125304	8.162992791655538e-25
-0.48809313737500304	7.6118740903919285e-25
-0.48803210221875304	7.028192336419056e-25
-0.48797106706250304	6.414418644410625e-25
-0.48791003190625304	5.773148339769749e-25
-0.48784899675000304	5.1070961774565395e-25
-0.48778796159375304	4.419082659402465e-25
-0.48772692643750304	3.7120192198962006e-25
-0.48766589128125304	2.98890231341119e-25
-0.48760485612500304	2.252795067720626e-25
-0.48754382096875304	1.5068165656613694e-25
-0.48748278581250304	7.541308996325324e-26
-0.48742175065625304	-2.0708362124949035e-28
-0.48736071550000304	-7.585796555587948e-26
-0.48729968034375304	-1.5121840088286208e-25
-0.48723864518750304	-2.2596837952874425e-25
-0.48717761003125304	-2.997902540208459e-25
-0.48711657487500304	-3.7237024485532396e-25
-0.48705553971875304	-4.433995413351163e-25
-0.48699450456250304	-5.125757776878131e-25
-0.48693346940625304	-5.796043520783976e-25
-0.48687243425000304	-6.441994721250824e-25
-0.48681139909375304	-7.060854589044831e-25
-0.48675036393750304	-7.649980482874004e-25
-0.48668932878125304	-8.206853644146031e-25
-0.48662829362500304	-8.729088809638839e-25
-0.48656725846875304	-9.214447505800612e-25
-0.48650622331250304	-9.66084516020149e-25
-0.48644518815625304	-1.0066359607060342e-24
-0.48638415300000304	-1.0429242297218082e-24
-0.48632311784375304	-1.0747921870256005e-24
-0.48626208268750304	-1.1021013313331686e-24
-0.48620104753125304	-1.1247324456110707e-24
-0.48614001237500304	-1.1425858188882429e-24
-0.48607897721875304	-1.1555819933773481e-24
-0.48601794206250304	-1.1636619566212214e-24
-0.48595690690625304	-1.1667873676794203e-24
-0.48589587175000304	-1.1649408726180178e-24
-0.48583483659375304	-1.1581260471382335e-24
-0.48577380143750304	-1.1463674765219318e-24
-0.48571276628125304	-1.1297106491061673e-24
-0.48565173112500304	-1.1082217672067183e-24
-0.48559069596875304	-1.081987479322308e-24
-0.48552966081250304	-1.0511145306486948e-24
-0.48546862565625304	-1.015729363842877e-24
-0.48540759050000304	-9.759775064898642e-25
-0.48534655534375304	-9.320230694818933e-25
-0.48528552018750304	-8.840480159556196e-25
-0.48522448503125304	-8.322513648192486e-25
-0.48516344987500304	-7.76848508503699e-25
-0.48510241471875304	-7.180701210415595e-25
-0.48504137956250304	-6.561612898142905e-25
-0.48498034440625304	-5.913806399385321e-25
-0.48491930925000304	-5.239988406589539e-25
-0.48485827409375304	-4.5429792534879705e-25
-0.48479723893750304	-3.8257000280677546e-25
-0.48473620378125304	-3.0911557471940606e-25
-0.48467516862500304	-2.342430531093936e-25
-0.48461413346875304	-1.5826688104801824e-25
-0.48455309831250304	-8.150623958203718e-26
-0.48449206315625304	-4.2841751273384064e-27
-0.48443102800000304	7.30743961351396e-26
-0.48436999284375304	1.5024361517888043e-25
-0.48430895768750304	2.268981134923981e-25
-0.48424792253125304	3.0271461128178473e-25
-0.48418688737500304	3.773731338339409e-25
-0.48412585221875304	4.505581650342894e-25
-0.48406481706250304	5.2196031203160825e-25
-0.48400378190625304	5.912777485597705e-25
-0.48394274675000304	6.582166079009112e-25
-0.48388171159375304	7.224933582232191e-25
-0.48382067643750304	7.838355109549083e-25
-0.48375964128125304	8.419822352518456e-25
-0.48369860612500304	8.966866771782596e-25
-0.48363757096875304	9.477158403317633e-25
-0.48357653581250304	9.948521621512812e-25
-0.48351550065625304	1.037894631874136e-24
-0.48345446550000304	1.0766588632217468e-24
-0.48339343034375304	1.1109787905673434e-24
-0.48333239518750304	1.140706844641796e-24
-0.48327136003125304	1.1657145700283063e-24
-0.48321032487500304	1.1858935698307053e-24
-0.48314928971875304	1.2011555229543196e-24
-0.48308825456250304	1.2114328611311659e-24
-0.48302721940625304	1.2166789835899924e-24
-0.48296618425000304	1.216868393950761e-24
-0.48290514909375304	1.2119969918892636e-24
-0.48284411393750304	1.2020818893907637e-24
-0.48278307878125304	1.1871615104834629e-24
-0.48272204362500304	1.1672954145964792e-24
-0.48266100846875304	1.1425639674672238e-24
-0.48259997331250304	1.1130681189548432e-24
-0.48253893815625304	1.0789289528886003e-24
-0.48247790300000304	1.0402871544458187e-24
-0.48241686784375304	9.973024661074484e-25
-0.48235583268750304	9.501530115109175e-25
-0.48229479753125304	8.9903453840854e-25
-0.48223376237500304	8.441596747154426e-25
-0.48217272721875304	7.85756855499509e-25
-0.48211169206250304	7.240696101708479e-25
-0.48205065690625304	6.593554248359892e-25
-0.48198962175000304	5.918844736478542e-25
-0.48192858659375304	5.219389419907731e-25
-0.48186755143750304	4.498113610452575e-25
-0.48180651628125304	3.7580364040531724e-25
-0.48174548112500304	3.00225816638043e-25
-0.48168444596875304	2.2339445207829847e-25
-0.48162341081250304	1.4563184465088503e-25
-0.48156237565625304	6.726404325847152e-26
-0.48150134050000304	-1.1380165330777959e-26
-0.48144030534375304	-8.99705437292246e-26
-0.48137927018750304	-1.681771985726901e-25
-0.48131823503125304	-2.4567155344319485e-25
-0.48125719987500304	-3.221281492572014e-25
-0.48119616471875304	-3.9722563236947513e-25
-0.48113512956250304	-4.706482000400195e-25
-0.48107409440625304	-5.420874144943961e-25
-0.48101305925000304	-6.112427402757736e-25
-0.48095202409375304	-6.778232781226836e-25
-0.48089098893750304	-7.415491892747585e-25
-0.48082995378125304	-8.021522557770528e-25
-0.48076891862500304	-8.593776288682835e-25
-0.48070788346875304	-9.129846356548965e-25
-0.48064684831250304	-9.627477391763928e-25
-0.48058581315625304	-1.0084577509227395e-24
-0.48052477800000304	-1.0499224150692746e-24
-0.48046374284375304	-1.0869675560986105e-24
-0.48040270768750304	-1.1194375410724072e-24
-0.48034167253125304	-1.1471960450364163e-24
-0.48028063737500304	-1.1701267959917394e-24
-0.48021960221875304	-1.1881337833050267e-24
-0.48015856706250304	-1.2011418719380774e-24
-0.48009753190625304	-1.2090971266317214e-24
-0.48003649675000304	-1.2119669452101719e-24
-0.47997546159375304	-1.2097402633463595e-24
-0.47991442643750304	-1.202427639396668e-24
-0.47985339128125304	-1.1900611674748094e-24
-0.47979235612500304	-1.1726943461531654e-24
-0.47973132096875304	-1.1504019217568298e-24
-0.47967028581250304	-1.1232795090895057e-24
-0.47960925065625304	-1.0914431982170652e-24
-0.47954821550000304	-1.0550291622045886e-24
-0.47948718034375304	-1.0141929386170397e-24
-0.47942614518750304	-9.691088773111451e-25
-0.47936511003125304	-9.199694120324194e-25
-0.47930407487500304	-8.66984163774083e-25
-0.47924303971875304	-8.103791586487152e-25
-0.47918200456250304	-7.5039577196960335e-25
-0.47912096940625304	-6.872898249134757e-25
-0.47905993425000304	-6.213303645555458e-25
-0.47899889909375304	-5.527986579811844e-25
-0.47893786393750304	-4.8198693833079745e-25
-0.47887682878125304	-4.091970334470641e-25
-0.47881579362500304	-3.34739446884592e-25
-0.47875475846875304	-2.5893162006031367e-25
-0.47869372331250304	-1.8209684025378925e-25
-0.47863268815625304	-1.045628372346751e-25
-0.47857165300000304	-2.6660245346989534e-26
-0.47851061784375304	5.127853562578517e-26
-0.47844958268750304	1.2892108246007429e-25
-0.47838854753125304	2.0593609437386474e-25
-0.47832751237500304	2.8199494215836707e-25
-0.47826647721875304	3.567730242636473e-25
-0.47820544206250304	4.299511664047039e-25
-0.47814440690625304	5.012170305916335e-25
-0.47808337175000304	5.70266244030281e-25
-0.47802233659375304	6.368040501790612e-25
-0.47796130143750304	7.005463065227327e-25
-0.47790026628125304	7.612206233060508e-25
-0.47783923112500304	8.185678505247034e-25
-0.47777819596875304	8.72343049881804e-25
-0.47771716081250304	9.223162219743783e-25
-0.47765612565625304	9.682738687978531e-25
-0.47759509050000304	1.0100195675465824e-24
-0.47753405534375304	1.0473746220764891e-24
-0.47747302018750304	1.0801794854576358e-24
-0.47741198503125304	1.1082936712577186e-24
-0.47735094987500304	1.1315968793539436e-24
-0.47728991471875304	1.1499895051626663e-24
-0.47722887956250304	1.163392633850933e-24
-0.47716784440625304	1.1717489398784457e-24
-0.47710680925000304	1.1750225909442987e-24
-0.47704577409375304	1.173199509385566e-24
-0.47698473893750304	1.1662874538664322e-24
-0.47692370378125304	1.1543159579020643e-24
-0.47686266862500304	1.13733628909024e-24
-0.47680163346875304	1.1154211032629031e-24
-0.47674059831250304	1.0886643108539581e-24
-0.47667956315625304	1.0571805407617652e-24
-0.47661852800000304	1.021104717546575e-24
-0.47655749284375304	9.805915698422136e-25
-0.47649645768750304	9.358147643628935e-25
-0.47643542253125304	8.869664363004385e-25
-0.47637438737500304	8.342561804583966e-25
-0.47631335221875304	7.779102263200615e-25
-0.47625231706250304	7.181705486018743e-25
-0.47619128190625304	6.552935977280687e-25
-0.47613024675000304	5.895496427155516e-25
-0.47606921159375304	5.212211380698253e-25
-0.47600817643750304	4.50601770840332e-25
-0.47594714128125304	3.779953720922152e-25
-0.47588610612500304	3.0371412051990128e-25
-0.47582507096875304	2.2807777207523773e-25
-0.47576403581250304	1.5141193781967158e-25
-0.47570300065625304	7.404671539153223e-26
-0.47564196550000304	-3.684416975753126e-27
-0.47558093034375304	-8.144651876646085e-26
-0.47551989518750304	-1.5890423312133234e-25
-0.47545886003125304	-2.3572326075484114e-25
-0.47539782487500304	-3.115720996704601e-25
-0.47533678971875304	-3.8612303627171084e-25
-0.47527575456250304	-4.590538857227508e-25
-0.47521471940625304	-5.30049261332136e-25
-0.47515368425000304	-5.988017679549248e-25
-0.47509264909375304	-6.650136999028054e-25
-0.47503161393750304	-7.283980144101139e-25
-0.47497057878125304	-7.886795162413934e-25
-0.47490954362500304	-8.455963831088611e-25
-0.47484850846875304	-8.98901093992631e-25
-0.47478747331250304	-9.483612339865026e-25
-0.47472643815625304	-9.937611023484332e-25
-0.47466540300000304	-1.0349021868806942e-24
-0.47460436784375304	-1.0716039634250646e-24
-0.47454333268750304	-1.1037052177987627e-24
-0.47448229753125304	-1.1310641086901835e-24
-0.47442126237500304	-1.1535591764774028e-24
-0.47436022721875304	-1.1710898434048837e-24
-0.47429919206250304	-1.1835766391623683e-24
-0.47423815690625304	-1.1909618526749695e-24
-0.47417712175000304	-1.1932095685679894e-24
-0.47411608659375304	-1.1903059028216555e-24
-0.47405505143750304	-1.1822591301940883e-24
-0.47399401628125304	-1.1690995992956592e-24
-0.47393298112500304	-1.150879594451449e-24
-0.47387194596875304	-1.1276732220869636e-24
-0.47381091081250304	-1.099576022780919e-24
-0.47374987565625304	-1.0667045743081739e-24
-0.47368884050000304	-1.0291960733300313e-24
-0.47362780534375304	-9.872076943692157e-25
-0.47356677018750304	-9.409159345081652e-25
-0.47350573503125304	-8.905159075487059e-25
-0.47344469987500304	-8.362204949496055e-25
-0.47338366471875304	-7.78259407327417e-25
-0.47332262956250304	-7.168783196073344e-25
-0.47326159440625304	-6.523376371578978e-25
-0.47320055925000304	-5.8491157523436625e-25
-0.47313952409375304	-5.148870243223929e-25
-0.47307848893750304	-4.4256192718584945e-25
-0.47301745378125304	-3.6824452038233196e-25
-0.47295641862500304	-2.9225195770882947e-25
-0.47289538346875304	-2.1490830650931394e-25
-0.47283434831250304	-1.3654402555124028e-25
-0.47277331315625304	-5.749428626759829e-26
-0.47271227800000304	2.1903089435522774e-26
-0.47265124284375304	1.0130808983932818e-25
-0.47259020768750304	1.803805058606248e-25
-0.47252917253125304	2.587816670884209e-25
-0.47246813737500304	3.3617515524382994e-25
-0.47240710221875304	4.122287867861964e-25
-0.47234606706250304	4.866161191809629e-25
