Time	Frequency
-0.5000250337812489	1.312347019539634e-24
-0.49996399862499885	1.2564654940552649e-24
-0.49990296346874885	1.1969690408043303e-24
-0.49984192831249885	1.1340219588137892e-24
-0.49978089315624885	1.067798249093245e-24
-0.49971985799999885	9.984813344366942e-25
-0.49965882284374885	9.262634589211348e-25
-0.49959778768749885	8.513451360342882e-25
-0.49953675253124885	7.739346451462562e-25
-0.49947571737499885	6.942473902059848e-25
-0.49941468221874885	6.12505362332925e-25
-0.49935364706249885	5.289364510682186e-25
-0.49929261190624885	4.437738317078041e-25
-0.49923157674999885	3.5725532933737135e-25
-0.49917054159374885	2.696228023789231e-25
-0.49910950643749885	1.8112125177206563e-25
-0.49904847128124885	9.199836257038879e-26
-0.49898743612499885	2.5038301464473848e-27
-0.49892640096874885	-8.711171230172484e-26
-0.49886536581249885	-1.7659686632135454e-25
-0.49880433065624885	-2.6570053727987695e-25
-0.49874329549999885	-3.541727455028283e-25
-0.49868226034374885	-4.417647622276358e-25
-0.49862122518749885	-5.282304517458815e-25
-0.49856019003124885	-6.133267809338711e-25
-0.49849915487499885	-6.968140766018961e-25
-0.49843811971874885	-7.784573347040674e-25
-0.49837708456249885	-8.580266703894382e-25
-0.49831604940624885	-9.352975474641559e-25
-0.49825501424999885	-1.010052122315071e-24
-0.49819397909374885	-1.0820794121195392e-24
-0.49813294393749885	-1.1511757859833534e-24
-0.49807190878124885	-1.2171461285723152e-24
-0.49801087362499885	-1.2798036804496168e-24
-0.49794983846874885	-1.3389710301499776e-24
-0.49788880331249885	-1.39448058823903e-24
-0.49782776815624885	-1.446174762289205e-24
-0.49776673299999885	-1.4939068184695765e-24
-0.49770569784374885	-1.5375409862467866e-24
-0.49764466268749885	-1.5769529694757882e-24
-0.49758362753124885	-1.6120303328354501e-24
-0.49752259237499885	-1.6426727577249947e-24
-0.49746155721874885	-1.6687923636339168e-24
-0.49740052206249885	-1.6903139481612566e-24
-0.49733948690624885	-1.7071752516439227e-24
-0.49727845174999885	-1.7193270625311666e-24
-0.49721741659374885	-1.7267334263758554e-24
-0.49715638143749885	-1.7293717438432346e-24
-0.49709534628124885	-1.7272327919204227e-24
-0.49703431112499885	-1.7203208284805574e-24
-0.49697327596874885	-1.7086535459604913e-24
-0.49691224081249885	-1.692262013094943e-24
-0.49685120565624885	-1.6711906475207248e-24
-0.49679017049999885	-1.6454970415136327e-24
-0.49672913534374885	-1.6152518258588364e-24
-0.49666810018749885	-1.5805385075596177e-24
-0.49660706503124885	-1.5414531826848097e-24
-0.49654602987499885	-1.498104291319015e-24
-0.49648499471874885	-1.4506123845864436e-24
-0.49642395956249885	-1.39910963921624e-24
-0.49636292440624885	-1.3437396597530781e-24
-0.49630188924999885	-1.284656980314809e-24
-0.49624085409374885	-1.222026582198264e-24
-0.49617981893749885	-1.156023621642318e-24
-0.49611878378124885	-1.0868327274688589e-24
-0.49605774862499885	-1.0146475697558754e-24
-0.49599671346874885	-9.39670383349279e-25
-0.49593567831249885	-8.621113103740748e-25
-0.49587464315624885	-7.821877784701633e-25
-0.49581360799999885	-7.001240447374844e-25
-0.49575257284374885	-6.1615040211773195e-25
-0.49569153768749885	-5.305025759267141e-25
-0.49563050253124885	-4.434211140489253e-25
-0.49556946737499885	-3.551507216355966e-25
-0.49550843221874885	-2.6593936278783836e-25
-0.49544739706249885	-1.760378448343337e-25
-0.49538636190624885	-8.569905554752553e-26
-0.49532532674999885	4.823160363436993e-27
-0.49526429159374885	9.527397046978352e-26
-0.49520325643749885	1.8539890640318987e-25
-0.49514222128124885	2.749444951981628e-25
-0.49508118612499885	3.6365851661273855e-25
-0.49502015096874885	4.512913351899649e-25
-0.49495911581249885	5.375962996855268e-25
-0.49489808065624885	6.223302670795612e-25
-0.49483704549999885	7.05254742215752e-25
-0.49477601034374885	7.861362467380876e-25
-0.49471497518749885	8.647468602539201e-25
-0.49465394003124885	9.408653535738239e-25
-0.49459290487499885	1.0142773525194047e-24
-0.49453186971874885	1.0847760609789353e-24
-0.49447083456249885	1.152163092307727e-24
-0.49440979940624885	1.21624866899432e-24
-0.49434876424999885	1.2768524747392958e-24
-0.49428772909374885	1.3338039610719407e-24
-0.49422669393749885	1.3869429346885656e-24
-0.49416565878124885	1.436120087078107e-24
-0.49410462362499885	1.481197086242671e-24
-0.49404358846874885	1.5220475431485067e-24
-0.49398255331249885	1.5585568377834272e-24
-0.49392151815624885	1.5906226164982426e-24
-0.49386048299999885	1.6181554079282327e-24
-0.49379944784374885	1.6410782730215868e-24
-0.49373841268749885	1.659327574710891e-24
-0.49367737753124885	1.672852924328854e-24
-0.49361634237499885	1.68161724463286e-24
-0.49355530721874885	1.6855971473707728e-24
-0.49349427206249885	1.684782717919944e-24
-0.49343323690624885	1.6791777476414595e-24
-0.49337220174999885	1.6687996567793582e-24
-0.49331116659374885	1.6536794047980454e-24
-0.49325013143749885	1.6338615162229787e-24
-0.49318909628124885	1.609403848987052e-24
-0.49312806112499885	1.5803775069591494e-24
-0.49306702596874885	1.5468666019013006e-24
-0.49300599081249885	1.5089680588743541e-24
-0.49294495565624885	1.4667912856210807e-24
-0.49288392049999885	1.4204579059749372e-24
-0.49282288534374885	1.3701014686191373e-24
-0.49276185018749885	1.3158669052441102e-24
-0.49270081503124885	1.2579103293549523e-24
-0.49263977987499885	1.1963984645800984e-24
-0.49257874471874885	1.1315081506320675e-24
-0.49251770956249885	1.063425986473845e-24
-0.49245667440624885	9.923476638144116e-25
-0.49239563924999885	9.184774287588208e-25
-0.49233460409374885	8.42027602143222e-25
-0.49227356893749885	7.632178618349482e-25
-0.49221253378124885	6.822746856339644e-25
-0.49215149862499885	5.994306794616603e-25
-0.49209046346874885	5.149238804336668e-25
-0.49202942831249885	4.289972409112942e-25
-0.49196839315624885	3.418976710599356e-25
-0.49190735799999885	2.538755870596067e-25
-0.49184632284374885	1.651840695342002e-25
-0.49178528768749885	7.607806143580311e-26
-0.49172425253124885	-1.3186012697619524e-26
-0.49166321737499885	-1.0235151476109035e-25
-0.49160218221874885	-1.9116187656706173e-25
-0.49154114706249885	-2.7936139633599216e-25
-0.49148011190624885	-3.6669639006174343e-25
-0.49141907674999885	-4.529151632808428e-25
-0.49135804159374885	-5.377695114115035e-25
-0.49129700643749885	-6.210149998983663e-25
-0.49123597128124885	-7.024114790693491e-25
-0.49117493612499885	-7.817245261711886e-25
-0.49111390096874885	-8.587251774955296e-25
-0.49105286581249885	-9.331912682148781e-25
-0.49099183065624885	-1.0049078716571207e-24
-0.49093079549999885	-1.0736676755382727e-24
-0.49086976034374885	-1.1392721020713205e-24
-0.49080872518749885	-1.2015312544963169e-24
-0.49074769003124885	-1.260264998228743e-24
-0.49068665487499885	-1.3153032184638099e-24
-0.49062561971874885	-1.3664862176934742e-24
-0.49056458456249885	-1.4136655690601442e-24
-0.49050354940624885	-1.4567040489930101e-24
-0.49044251424999885	-1.4954764212718548e-24
-0.49038147909374885	-1.529869653160205e-24
-0.49032044393749885	-1.559783140536402e-24
-0.49025940878124885	-1.585129302156097e-24
-0.49019837362499885	-1.6058334718024767e-24
-0.49013733846874885	-1.6218343752993496e-24
-0.49007630331249885	-1.6330842684230029e-24
-0.49001526815624885	-1.639548943274137e-24
-0.48995423299999885	-1.6412080358613952e-24
-0.48989319784374885	-1.6380549352138138e-24
-0.48983216268749885	-1.6300968697454316e-24
-0.48977112753124885	-1.6173549064580501e-24
-0.48971009237499885	-1.5998638641708351e-24
-0.48964905721874885	-1.57767223122431e-24
-0.48958802206249885	-1.5508420627696127e-24
-0.48952698690624885	-1.5194487574700558e-24
-0.48946595174999885	-1.4835808797844622e-24
-0.48940491659374885	-1.4433399480322078e-24
-0.48934388143749885	-1.398840042056403e-24
-0.48928284628124885	-1.3502076016540022e-24
-0.48922181112499885	-1.2975810285705465e-24
-0.48916077596874885	-1.2411102240777406e-24
-0.48909974081249885	-1.1809563083165323e-24
-0.48903870565624885	-1.1172910381546923e-24
-0.48897767049999885	-1.0502963556885668e-24
-0.48891663534374885	-9.801639309996168e-25
-0.48885560018749885	-9.070945234061846e-25
-0.48879456503124885	-8.31297461372588e-25
-0.48873352987499885	-7.529900778315015e-25
-0.48867249471874885	-6.723969906885701e-25
-0.48861145956249885	-5.897495848969263e-25
-0.48855042440624885	-5.052852780152736e-25
-0.48848938924999885	-4.192467961088691e-25
-0.48842835409374885	-3.31881651831922e-25
-0.48836731893749885	-2.4344121435483703e-25
-0.48830628378124885	-1.5418018619234028e-25
-0.48824524862499885	-6.435567983079755e-26
-0.48818421346874885	2.577325355773901e-26
-0.48812317831249885	1.1594667478525576e-25
-0.48806214315624885	2.0590431381724003e-25
-0.48800110799999885	2.953862700034365e-25
-0.48794007284374885	3.841339773296559e-25
-0.48787903768749885	4.718906789201752e-25
-0.48781800253124885	5.584025059363115e-25
-0.48775696737499885	6.434186976476508e-25
-0.48769593221874885	7.266929918600601e-25
-0.48763489706249885	8.079836763862274e-25
-0.48757386190624885	8.870547062873768e-25
-0.48751282674999885	9.636763464958933e-25
-0.48745179159374885	1.0376255524448822e-24
-0.48739075643749885	1.108687099095277e-24
-0.48732972128124885	1.1766535029077213e-24
-0.48726868612499885	1.241326553050986e-24
-0.48720765096874885	1.302516979312154e-24
-0.48714661581249885	1.3600454710685342e-24
-0.48708558065624885	1.413743406482242e-24
-0.48702454549999885	1.4634526126053341e-24
-0.48696351034374885	1.509026618753475e-24
-0.48690247518749885	1.5503306471566209e-24
-0.48684144003124885	1.5872420232220741e-24
-0.48678040487499885	1.6196506939759632e-24
-0.48671936971874885	1.6474595005702496e-24
-0.48665833456249885	1.6705843403199352e-24
-0.48659729940624885	1.6889545886296632e-24
-0.48653626424999885	1.7025132446287283e-24
-0.48647522909374885	1.7112170087102187e-24
-0.48641419393749885	1.7150366248742208e-24
-0.48635315878124885	1.7139567411273067e-24
-0.48629212362499885	1.707976141457696e-24
-0.48623108846874885	1.6971076638254538e-24
-0.48617005331249885	1.6813781906466633e-24
-0.48610901815624885	1.66082860108297e-24
-0.48604798299999885	1.6355136479365126e-24
-0.48598694784374885	1.6055017905580368e-24
-0.48592591268749885	1.5708750369798455e-24
-0.48586487753124885	1.5317287396798969e-24
-0.48580384237499885	1.4881711806743673e-24
-0.48574280721874885	1.4403235554305134e-24
-0.48568177206249885	1.388319297011713e-24
-0.48562073690624885	1.3323039246323164e-24
-0.48555970174999885	1.2724346332007846e-24
-0.48549866659374885	1.2088796543844173e-24
-0.48543763143749885	1.1418180052779601e-24
-0.48537659628124885	1.0714388533315656e-24
-0.48531556112499885	9.979410345192253e-25
-0.48525452596874885	9.215323970213876e-25
-0.48519349081249885	8.424293701619116e-25
-0.48513245565624885	7.608561476582583e-25
-0.48507142049999885	6.770442082989721e-25
-0.48501038534374885	5.912316591278565e-25
-0.48494935018749885	5.036622864854677e-25
-0.48488831503124885	4.145853316680131e-25
-0.48482727987499885	3.2425433557616954e-25
-0.48476624471874885	2.329265018850176e-25
-0.48470520956249885	1.4086239806288472e-25
-0.48464417440624885	4.83244389376502e-26
-0.48458313924999885	-4.4423293540509126e-26
-0.48452210409374885	-1.371157619386268e-25
-0.48446106893749885	-2.2948836589538134e-25
-0.48440003378124885	-3.2127693927441926e-25
-0.48433899862499885	-4.122189265779233e-25
-0.48427796346874885	-5.020542268897323e-25
-0.48421692831249885	-5.905255458247178e-25
-0.48415589315624885	-6.773795885880933e-25
-0.48409485799999885	-7.623674319097635e-25
-0.48403382284374885	-8.452454519089222e-25
-0.48397278768749885	-9.257760385678353e-25
-0.48391175253124885	-1.0037279570430734e-24
-0.48385071737499885	-1.0788776305277281e-24
-0.48378968221874885	-1.1510091742491747e-24
-0.48372864706249885	-1.2199152600171371e-24
-0.48366761190624885	-1.2853980272018425e-24
-0.48360657674999885	-1.3472689364072572e-24
-0.48354554159374885	-1.4053500954470867e-24
-0.48348450643749885	-1.459474354419855e-24
-0.48342347128124885	-1.5094856019163256e-24
-0.48336243612499885	-1.5552399143823017e-24
-0.48330140096874885	-1.596605242854694e-24
-0.48324036581249885	-1.6334621251056682e-24
-0.48317933065624885	-1.6657042207826207e-24
-0.48311829549999885	-1.6932381612023082e-24
-0.48305726034374885	-1.715984240846384e-24
-0.48299622518749885	-1.7338764820807033e-24
-0.48293519003124885	-1.7468627601896252e-24
-0.48287415487499885	-1.754905159312385e-24
-0.48281311971874885	-1.7579798889408556e-24
-0.48275208456249885	-1.7560774810615997e-24
-0.48269104940624885	-1.749202799668023e-24
-0.48263001424999885	-1.7373749845051185e-24
-0.48256897909374885	-1.7206274821196482e-24
-0.48250794393749885	-1.699007883237592e-24
-0.48244690878124885	-1.6725778423853456e-24
-0.48238587362499885	-1.6414128738908954e-24
-0.48232483846874885	-1.605602153789387e-24
-0.48226380331249885	-1.5652482916279333e-24
-0.48220276815624885	-1.5204669734624145e-24
-0.48214173299999885	-1.4713867091206655e-24
-0.48208069784374885	-1.418148429787039e-24
-0.48201966268749885	-1.3609050726979386e-24
-0.48195862753124885	-1.2998211864700902e-24
-0.48189759237499885	-1.2350724171316291e-24
-0.48183655721874885	-1.1668450443930103e-24
-0.48177552206249885	-1.0953353758313499e-24
-0.48171448690624885	-1.0207493325398454e-24
-0.48165345174999885	-9.433016456282502e-25
-0.48159241659374885	-8.632154452178788e-25
-0.48153138143749885	-7.807215202207248e-25
-0.48147034628124885	-6.9605754328191625e-25
-0.48140931112499885	-6.094677428825833e-25
-0.48134827596874885	-5.212016437829001e-25
-0.48128724081249885	-4.315139553554238e-25
-0.48122620565624885	-3.4066342370994222e-25
-0.48116517049999885	-2.4891210629601874e-25
-0.48110413534374885	-1.5652497254678794e-25
-0.48104310018749885	-6.376856461424677e-26
-0.48098206503124885	2.908918523414353e-26
-0.48092102987499885	1.21780159661298e-25
-0.48085999471874885	2.14036675601224e-25
-0.48079895956249885	3.0559210330067083e-25
-0.48073792440624885	3.961820404485906e-25
-0.48067688924999885	4.855446500221882e-25
-0.48061585409374885	5.7342162683512025e-25
-0.48055481893749885	6.595590640023264e-25
-0.48049378378124885	7.437078451031846e-25
-0.48043274862499885	8.256247257938961e-25
-0.48037171346874885	9.050729115278282e-25
-0.48031067831249885	9.81822556010369e-25
-0.48024964315624885	1.0556517987573612e-24
-0.48018860799999885	1.1263471013874484e-24
-0.48012757284374885	1.1937039957144073e-24
-0.48006653768749885	1.2575277481866687e-24
-0.48000550253124885	1.317633723055028e-24
-0.47994446737499885	1.3738481409490796e-24
-0.47988343221874885	1.4260084868739642e-24
-0.47982239706249885	1.4739639828847155e-24
-0.47976136190624885	1.5175760141710175e-24
-0.47970032674999885	1.5567186200933341e-24
-0.47963929159374885	1.5912788026699866e-24
-0.47957825643749885	1.6211567886321877e-24
-0.47951722128124885	1.6462665480310554e-24
-0.47945618612499885	1.666535787200071e-24
-0.47939515096874885	1.6819063016641404e-24
-0.47933411581249885	1.6923342075695897e-24
-0.47927308065624885	1.6977898977235437e-24
-0.47921204549999885	1.6982583066404614e-24
-0.47915101034374885	1.6937388674551614e-24
-0.47908997518749885	1.684245529976702e-24
-0.47902894003124885	1.6698067601383008e-24
-0.47896790487499885	1.6504654080413051e-24
-0.47890686971874885	1.6262786654473822e-24
-0.47884583456249885	1.5973178024223887e-24
-0.47878479940624885	1.5636680796729924e-24
-0.47872376424999885	1.5254284272263929e-24
-0.47866272909374885	1.4827111470380079e-24
-0.47860169393749885	1.4356417330917608e-24
-0.47854065878124885	1.3843582404814811e-24
-0.47847962362499885	1.3290112338566767e-24
-0.47841858846874885	1.2697630943580961e-24
-0.47835755331249885	1.206787538021205e-24
-0.47829651815624885	1.1402694287270262e-24
-0.47823548299999885	1.0704037875532459e-24
-0.47817444784374885	9.973956246991196e-25
-0.47811341268749885	9.214591412861792e-25
-0.47805237753124885	8.428170952375652e-25
-0.47799134237499885	7.617003009547307e-25
-0.47793030721874885	6.783468135686559e-25
-0.47786927206249885	5.930013633925432e-25
-0.47780823690624885	5.059144067672389e-25
-0.47774720174999885	4.173418074135771e-25
-0.47768616659374885	3.275437018374642e-25
-0.47762513143749885	2.3678384167083654e-25
-0.47756409628124885	1.4532909033184721e-25
-0.47750306112499885	5.344819417208027e-26
-0.47744202596874885	-3.858867267969083e-26
-0.47738099081249885	-1.3051067086752358e-25
-0.47731995565624885	-2.2204739559108596e-25
-0.47725892049999885	-3.1292944667843046e-25
-0.47719788534374885	-4.0288903338148335e-25
-0.47713685018749885	-4.916612677133179e-25
-0.47707581503124885	-5.789844551165713e-25
-0.47701477987499885	-6.646010503995385e-25
-0.47695374471874885	-7.4825855232071135e-25
-0.47689270956249885	-8.297098753915695e-25
-0.47683167440624885	-9.087145510838492e-25
-0.47677063924999885	-9.850389753072411e-25
-0.47670960409374885	-1.058457391965058e-24
-0.47664856893749885	-1.128752521287874e-24
-0.47658753378124885	-1.1957160029251424e-24
-0.47652649862499885	-1.2591493145868934e-24
-0.47646546346874885	-1.3188640749626932e-24
-0.47640442831249885	-1.3746827988115695e-24
-0.47634339315624885	-1.4264392653419733e-24
-0.47628235799999885	-1.4739791735977802e-24
-0.47622132284374885	-1.5171604933332137e-24
-0.47616028768749885	-1.5558538258489743e-24
-0.47609925253124885	-1.5899430410296004e-24
-0.47603821737499885	-1.6193252669542716e-24
-0.47597718221874885	-1.643911517445865e-24
-0.47591614706249885	-1.6636268262970254e-24
-0.47585511190624885	-1.6784103780035316e-24
-0.47579407674999885	-1.6882159082242144e-24
-0.47573304159374885	-1.693011659253489e-24
-0.47567200643749885	-1.6927805911424135e-24
-0.47561097128124885	-1.6875203907535736e-24
-0.47554993612499885	-1.677243488066655e-24
-0.47548890096874885	-1.661977070347275e-24
-0.47542786581249885	-1.6417629353706122e-24
-0.47536683065624885	-1.6166574646092549e-24
-0.47530579549999885	-1.5867313950138988e-24
-0.47524476034374885	-1.5520696490911688e-24
-0.47518372518749885	-1.5127711191414299e-24
-0.47512269003124885	-1.468948319836658e-24
-0.47506165487499885	-1.420727135318103e-24
-0.47500061971874885	-1.368246421561962e-24
-0.47493958456249885	-1.3116576070175528e-24
-0.47487854940624885	-1.2511242713445068e-24
-0.47481751424999885	-1.1868216494259777e-24
-0.47475647909374885	-1.118936187551532e-24
-0.47469544393749885	-1.0476648857311441e-24
-0.47463440878124885	-9.73214829966699e-25
-0.47457337362499885	-8.958026210231723e-25
-0.47451233846874885	-8.15653533075163e-25
-0.47445130331249885	-7.330011652337822e-25
-0.47439026815624885	-6.4808652483418e-25
-0.47432923299999885	-5.611574022056211e-25
-0.47426819784374885	-4.724676673416283e-25
-0.47420716268749885	-3.8227652893248574e-25
-0.47414612753124885	-2.9084775709697715e-25
-0.47408509237499885	-1.984488130123662e-25
-0.47402405721874885	-1.053504303750623e-25
-0.47396302206249885	-1.1825262390460265e-26
-0.47390198690624885	8.185248839498029e-26
-0.47384095174999885	1.7540785238469752e-25
-0.47377991659374885	2.6856631080106977e-25
-0.47371888143749885	3.6105418715544125e-25
-0.47365784628124885	4.52599568569823e-25
-0.47359681112499885	5.429332104700288e-25
-0.47353577596874885	6.317892949008777e-25
-0.47347474081249885	7.189059802469261e-25
-0.47341370565624885	8.0402656057919635e-25
-0.47335267049999885	8.86899999026588e-25
-0.47329163534374885	9.672814772235331e-25
-0.47323060018749885	1.0449336632264068e-24
-0.47316956503124885	1.1196268161069202e-24
-0.47310852987499885	1.1911398187982997e-24
-0.47304749471874885	1.2592608214978032e-24
-0.47298645956249885	1.3237876301745897e-24
-0.47292542440624885	1.3845285498091132e-24
-0.47286438924999885	1.441302928797808e-24
-0.47280335409374885	1.4939415591537109e-24
-0.47274231893749885	1.5422871547433481e-24
-0.47268128378124885	1.5861952362826696e-24
-0.47262024862499885	1.6255338766858963e-24
-0.47255921346874885	1.6601846858339816e-24
-0.47249817831249885	1.6900429801869168e-24
-0.47243714315624885	1.7150178341415372e-24
-0.47237610799999885	1.7350328754655608e-24
