Time	Frequency
-0.5000363268437553	0.22507690025501292
-0.4999752916875053	0.20450693484755159
-0.4999142565312553	0.18323615530949308
-0.4998532213750053	0.1613416633307341
-0.4997921862187553	0.1389028532707397
-0.4997311510625053	0.11600106800717952
-0.4996701159062553	0.09271931558332365
-0.4996090807500053	0.06914206608987894
-0.4995480455937553	0.04535471312317054
-0.4994870104375053	0.021443560971168736
-0.4994259752812553	-0.002504685005798132
-0.4993649401250053	-0.0264032500314645
-0.4993039049687553	-0.050165393615224575
-0.4992428698125053	-0.07370497416347792
-0.4991818346562553	-0.09693661129200837
-0.4991207995000053	-0.11977603932465256
-0.4990597643437553	-0.14214036399118019
-0.4989987291875053	-0.1639484743437624
-0.4989376940312553	-0.18512124806931632
-0.4988766588750053	-0.2055817812209517
-0.4988156237187553	-0.22525587537523603
-0.4987545885625053	-0.24407207523623717
-0.4986935534062553	-0.26196205794874594
-0.4986325182500053	-0.27886087516191127
-0.4985714830937553	-0.2947071288543135
-0.4985104479375053	-0.3094432848984324
-0.4984494127812553	-0.3230157802659374
-0.4983883776250053	-0.33537527986948257
-0.4983273424687553	-0.3464769074908008
-0.4982663073125053	-0.3562802669687158
-0.4982052721562553	-0.36474970242181026
-0.4981442370000053	-0.3718544474990871
-0.4980832018437553	-0.3775686286201227
-0.4980221666875053	-0.38187145316013527
-0.4979611315312553	-0.38474725696582185
-0.4979000963750053	-0.38618557563236044
-0.4978390612187553	-0.3861811490040839
-0.4977780260625053	-0.3847339767393108
-0.4977169909062553	-0.3818493353616827
-0.4976559557500053	-0.37753770007948634
-0.4975949205937553	-0.37181476647142836
-0.4975338854375053	-0.3647013791821423
-0.4974728502812553	-0.3562234427784171
-0.4974118151250053	-0.3464118495570882
-0.4973507799687553	-0.3353023593077055
-0.4972897448125053	-0.32293547998404154
-0.4972287096562553	-0.30935630808984077
-0.4971676745000053	-0.29461438488200153
-0.4971066393437553	-0.27876350859124394
-0.4970456041875053	-0.261861537642596
-0.4969845690312553	-0.24397018650859933
-0.4969235338750053	-0.22515481435767234
-0.4968624987187553	-0.2054841732306783
-0.4968014635625053	-0.18503015070012702
-0.4967404284062553	-0.16386755864769545
-0.4966793932500053	-0.1420737837481405
-0.4966183580937553	-0.11972860522495679
-0.4965573229375053	-0.09691381195070194
-0.4964962877812553	-0.0737129333118861
-0.4964352526250053	-0.05021104169077331
-0.4963742174687553	-0.02649424019120262
-0.4963131823125053	-0.0026495130116213628
-0.4962521471562553	0.02123559814671416
-0.4961911120000053	0.04507345252569269
-0.4961300768437553	0.06877644503549554
-0.4960690416875053	0.09225744661830376
-0.4960080065312553	0.11543009457896503
-0.4959469713750053	0.13820906502835797
-0.4958859362187553	0.1605104790044061
-0.4958249010625053	0.18225205252444246
-0.4957638659062553	0.20335360123982013
-0.4957028307500053	0.22373714610557635
-0.4956417955937553	0.2433272693296295
-0.4955807604375053	0.2620514998971229
-0.4955197252812553	0.2798403343082384
-0.4954586901250053	0.2966277313351626
-0.4953976549687553	0.3123512399511651
-0.4953366198125053	0.32695220511742334
-0.4952755846562553	0.34037607021271776
-0.4952145495000053	0.35257250382251587
-0.4951535143437553	0.3634956277751021
-0.4950924791875053	0.37310416251858286
-0.4950314440312553	0.3813615914594975
-0.4949704088750053	0.3882363020596534
-0.4949093737187553	0.3937016831584149
-0.4948483385625053	0.39773625852065286
-0.4947873034062553	0.4003237309816313
-0.4947262682500053	0.40145306551672294
-0.4946652330937553	0.4011185445417165
-0.4946041979375053	0.39931975226067346
-0.4945431627812553	0.39606162538988016
-0.4944821276250053	0.39135440781866293
-0.4944210924687553	0.3852136274790319
-0.4943600573125053	0.37766004504663725
-0.4942990221562553	0.3687195676211611
-0.4942379870000053	0.35842319009798695
-0.4941769518437553	0.34680684056551353
-0.4941159166875053	0.3339112860655355
-0.4940548815312553	0.3197819797940595
-0.4939938463750053	0.30446889991838244
-0.4939328112187553	0.28802634798471344
-0.4938717760625053	0.2705127771617628
-0.4938107409062553	0.251990616573702
-0.4937497057500053	0.23252594004812752
-0.4936886705937553	0.21218833232403683
-0.4936276354375053	0.1910506281793766
-0.4935666002812553	0.16918855929528578
-0.4935055651250053	0.14668057500808449
-0.4934445299687553	0.12360754367178096
-0.4933834948125053	0.10005241191520385
-0.4933224596562553	0.07609994373004171
-0.4932614245000053	0.05183639947829114
-0.4932003893437553	0.027349242649598766
-0.4931393541875053	0.0027267941309330186
-0.4930783190312553	-0.021942097954945262
-0.4930172838750053	-0.04656831338229664
-0.4929562487187553	-0.07106286977058085
-0.4928952135625053	-0.09533721368561106
-0.4928341784062553	-0.11930348658328067
-0.4927731432500053	-0.14287494897755224
-0.4927121080937553	-0.16596624298716736
-0.4926510729375053	-0.18849366700442513
-0.4925900377812553	-0.21037555152035073
-0.4925290026250053	-0.23153251732438856
-0.4924679674687553	-0.2518877788016583
-0.4924069323125053	-0.271367419481248
-0.4923458971562553	-0.2899006518783326
-0.4922848620000053	-0.30742010971220063
-0.4922238268437553	-0.3238620704935533
-0.4921627916875053	-0.33916668896550906
-0.4921017565312553	-0.3532782120896584
-0.4920407213750053	-0.36614522930709065
-0.4919796862187553	-0.37772079548508913
-0.4919186510625053	-0.3879626289043189
-0.4918576159062553	-0.3968333305580499
-0.4917965807500053	-0.40430040158534175
-0.4917355455937553	-0.4103364638519034
-0.4916745104375053	-0.4149193425168315
-0.4916134752812553	-0.4180320944742071
-0.4915524401250053	-0.41966315109587593
-0.4914914049687553	-0.4198063114126202
-0.4914303698125053	-0.4184607779277462
-0.4913693346562553	-0.41563117181337605
-0.4913082995000053	-0.4113275141554344
-0.4912472643437553	-0.40556518403817904
-0.4911862291875053	-0.39836487481860416
-0.4911251940312553	-0.3897525221964936
-0.4910641588750053	-0.3797591939352297
-0.4910031237187553	-0.36842100841233116
-0.4909420885625053	-0.3557789783047885
-0.4908810534062553	-0.34187887021139723
-0.4908200182500053	-0.32677105346667557
-0.4907589830937553	-0.31051030758360465
-0.4906979479375053	-0.2931555948842236
-0.4906369127812553	-0.2747699314281282
-0.4905758776250053	-0.2554200641093288
-0.4905148424687553	-0.23517623262593826
-0.4904538073125053	-0.21411205762862018
-0.4903927721562553	-0.1923040518901647
-0.4903317370000053	-0.16983150427269875
-0.4902707018437553	-0.1467761538194947
-0.4902096666875053	-0.12322184689878189
-0.4901486315312553	-0.09925429448199198
-0.4900875963750053	-0.07496067996409561
-0.4900265612187553	-0.05042947451377053
-0.4899655260625053	-0.025749932951057073
-0.4899044909062553	-0.001011922357150716
-0.4898434557500053	0.023694464457727864
-0.4897824205937553	0.04827928486962506
-0.4897213854375053	0.07265296201191504
-0.4896603502812553	0.09672675421948461
-0.4895993151250053	0.12041294180354231
-0.4895382799687553	0.1436252549637956
-0.4894772448125053	0.16627914991309167
-0.4894162096562553	0.18829207739019088
-0.4893551745000053	0.20958386647026153
-0.4892941393437553	0.23007698629742818
-0.4892331041875053	0.24969677516043698
-0.4891720690312553	0.26837179326740707
-0.4891110338750053	0.28603409584595657
-0.4890499987187553	0.3026193643910785
-0.4889889635625053	0.3180672791625823
-0.4889279284062553	0.3323216766307623
-0.4888668932500053	0.34533076682288333
-0.4888058580937553	0.35704730904763665
-0.4887448229375053	0.3674288023114807
-0.4886837877812553	0.37643769580252007
-0.4886227526250053	0.3840413954061458
-0.4885617174687553	0.39021251170649107
-0.4885006823125053	0.39492893864613793
-0.4884396471562553	0.3981738496655227
-0.4883786120000053	0.3999358756571411
-0.4883175768437553	0.4002090991118927
-0.4882565416875053	0.39899304033809985
-0.4881955065312553	0.39629273460675385
-0.4881344713750053	0.39211867350881807
-0.4880734362187553	0.3864867545199501
-0.4880124010625053	0.37941826563947806
-0.4879513659062553	0.37093979008434874
-0.4878903307500053	0.36108307398158024
-0.4878292955937553	0.34988500143946344
-0.4877682604375053	0.337387363743058
-0.4877072252812553	0.3236367350396021
-0.4876461901250053	0.3086844038115946
-0.4875851549687553	0.2925859685578262
-0.4875241198125053	0.2754013680839629
-0.4874630846562553	0.2571945543087248
-0.4874020495000053	0.23803316061085833
-0.4873410143437553	0.2179885087404307
-0.4872799791875053	0.19713507515089557
-0.4872189440312553	0.17555038355986813
-0.4871579088750053	0.15331471583518577
-0.4870968737187553	0.13051066600399794
-0.4870358385625053	0.10722309882620706
-0.4869748034062553	0.08353856518171232
-0.4869137682500053	0.05954512362639115
-0.4868527330937553	0.0353320967335394
-0.4867916979375053	0.010989509474942401
-0.4867306627812553	-0.01339202104657221
-0.4866696276250053	-0.03772173136367689
-0.4866085924687553	-0.06190901820674689
-0.4865475573125053	-0.08586377395438329
-0.4864865221562553	-0.10949674738420118
-0.4864254870000053	-0.13271978138052354
-0.4863644518437553	-0.15544627251025536
-0.4863034166875053	-0.1775914131322606
-0.4862423815312553	-0.1990724480459645
-0.4861813463750053	-0.21980914461343207
-0.4861203112187553	-0.23972393745269563
-0.4860592760625053	-0.25874223954027703
-0.4859982409062553	-0.27679286946965814
-0.4859372057500053	-0.2938080585782544
-0.4858761705937553	-0.3097239224104764
-0.4858151354375053	-0.324480636636401
-0.4857541002812553	-0.338022538831765
-0.4856930651250053	-0.3502985833475835
-0.4856320299687553	-0.3612622697353575
-0.4855709948125053	-0.3708719619548219
-0.4855099596562553	-0.37909109868448454
-0.4854489245000053	-0.3858881236417024
-0.4853878893437553	-0.3912368200185916
-0.4853268541875053	-0.39511630777092566
-0.4852658190312553	-0.39751110266876455
-0.4852047838750053	-0.39841125352753987
-0.4851437487187553	-0.3978123157573909
-0.4850827135625053	-0.39571540269011085
-0.4850216784062553	-0.3921271719478233
-0.4849606432500053	-0.3870598220823235
-0.4848996080937553	-0.38053101696671837
-0.4848385729375053	-0.3725638631537868
-0.4847775377812553	-0.363186801501373
-0.4847165026250053	-0.3524334981576214
-0.4846554674687553	-0.3403427723904446
-0.4845944323125053	-0.3269583768574452
-0.4845333971562553	-0.31232891180857375
-0.4844723620000053	-0.2965076180426001
-0.4844113268437553	-0.2795521582889102
-0.4843502916875053	-0.2615244683246953
-0.4842892565312553	-0.2424904702455737
-0.4842282213750053	-0.22251984401690583
-0.4841671862187553	-0.2016858176631949
-0.4841061510625053	-0.1800648411112097
-0.4840451159062553	-0.15773631867153892
-0.4839840807500053	-0.1347823461567928
-0.4839230455937553	-0.1112873933889464
-0.4838620104375053	-0.08733794703898581
-0.4838009752812553	-0.0630222852976442
-0.4837399401250053	-0.038430089971763504
-0.4836789049687553	-0.013652062676307614
-0.4836178698125053	0.01122021593892502
-0.4835568346562553	0.036094907797107514
-0.4834957995000053	0.06087999200220618
-0.4834347643437553	0.08548372877577876
-0.4833737291875053	0.10981511160699146
-0.4833126940312553	0.1337838408967034
-0.4832516588750053	0.1573011477769542
-0.4831906237187553	0.18027975818858707
-0.4831295885625053	0.2026342444024975
-0.4830685534062553	0.2242816444775939
-0.4830075182500053	0.2451413646645885
-0.4829464830937553	0.26513574260832345
-0.4828854479375053	0.2841903063939637
-0.4828244127812553	0.30223391715049364
-0.4827633776250053	0.31919920418632686
-0.4827023424687553	0.3350227127269423
-0.4826413073125053	0.34964514900867943
-0.4825802721562553	0.3630116626030297
-0.4825192370000053	0.3750719799998424
-0.4824582018437553	0.38578061509063194
-0.4823971666875053	0.3950970909794514
-0.4823361315312553	0.40298601076702384
-0.4822750963750053	0.40941724515757894
-0.4822140612187553	0.4143660511943303
-0.4821530260625053	0.4178131110458168
-0.4820919909062553	0.41974468548133476
-0.4820309557500053	0.4201526068793628
-0.4819699205937553	0.41903432843747856
-0.4819088854375053	0.4163929609739796
-0.4818478502812553	0.412237227422352
-0.4817868151250053	0.4065814606971187
-0.4817257799687553	0.3994455471059504
-0.4816647448125053	0.3908548425620755
-0.4816037096562553	0.38084010423292247
-0.4815426745000053	0.36943737194352455
-0.4814816393437553	0.3566878056611009
-0.4814206041875053	0.34263760449710934
-0.4813595690312553	0.32733777400797587
-0.4812985338750053	0.31084395376324236
-0.4812374987187553	0.293216255852567
-0.4811764635625053	0.274518982866211
-0.4811154284062553	0.25482044661144426
-0.4810543932500053	0.23419265407474693
-0.4809933580937553	0.21271112188902086
-0.4809323229375053	0.19045455366994737
-0.4808712877812553	0.16750450102727388
-0.4808102526250053	0.1439451911487091
-0.4807492174687553	0.11986307384736879
-0.4806881823125053	0.09534661113108871
-0.4806271471562553	0.07048589549256663
-0.4805661120000053	0.04537229740062471
-0.4805050768437553	0.02009823851847998
-0.4804440416875053	-0.005243347118247358
-0.4803830065312553	-0.03055913873810376
-0.4803219713750053	-0.05575590942889419
-0.4802609362187553	-0.08074089319087566
-0.4801999010625053	-0.10542197555641954
-0.4801388659062553	-0.1297082350992511
-0.4800778307500053	-0.15351010346222146
-0.4800167955937553	-0.17673983426746231
-0.4799557604375053	-0.19931177175113654
-0.4798947252812553	-0.2211425768919489
-0.4798336901250053	-0.24215177387253217
-0.4797726549687553	-0.2622618409296432
-0.4797116198125053	-0.2813985016998976
-0.4796505846562553	-0.29949118443019107
-0.4795895495000053	-0.31647311369666864
-0.4795285143437553	-0.33228158604221697
-0.4794674791875053	-0.34685828129646473
-0.4794064440312553	-0.36014941620094915
-0.4793454088750053	-0.3721059759951714
-0.4792843737187553	-0.3826838487673235
-0.4792233385625053	-0.39184406861667603
-0.4791623034062553	-0.3995529213398179
-0.4791012682500053	-0.40578204079206226
-0.4790402330937553	-0.41050858446455835
-0.4789791979375053	-0.4137152704379567
-0.4789181627812553	-0.4153904643083062
-0.4788571276250053	-0.41552821452132693
-0.4787960924687553	-0.4141282883570494
-0.4787350573125053	-0.41119616954854826
-0.4786740221562553	-0.40674303417834773
-0.4786129870000053	-0.4007857241488451
-0.4785519518437553	-0.3933466724320206
-0.4784909166875053	-0.3844538451612489
-0.4784298815312553	-0.37414059631761776
-0.4783688463750053	-0.3624456003586818
-0.4783078112187553	-0.3494126841397338
-0.4782467760625053	-0.3350906158610482
-0.4781857409062553	-0.3195330579327091
-0.4781247057500053	-0.3027982235435543
-0.4780636705937553	-0.28494870553257684
-0.4780026354375053	-0.26605136353833264
-0.4779416002812553	-0.246176861921329
-0.4778805651250053	-0.22539955685224924
-0.4778195299687553	-0.20379727288679358
-0.4777584948125053	-0.18145076492287923
-0.4776974596562553	-0.1584436943054732
-0.4776364245000053	-0.13486223337957
-0.4775753893437553	-0.11079456067888027
-0.4775143541875053	-0.08633085452557872
-0.4774533190312553	-0.06156271430032328
-0.4773922838750053	-0.03658285083252202
-0.4773312487187553	-0.011484892525743506
-0.4772702135625053	0.013637170621899316
-0.4772091784062553	0.03868918500312188
-0.4771481432500053	0.06357724173864135
-0.4770871080937553	0.08820805358958915
-0.4770260729375053	0.11248926031022778
-0.4769650377812553	0.13632977215232797
-0.4769040026250053	0.159640133175702
-0.4768429674687553	0.18233289661523283
-0.4767819323125053	0.2043228386289585
-0.4767208971562553	0.22552736676902027
-0.4766598620000053	0.24586685403209843
-0.4765988268437553	0.2652648326007356
-0.4765377916875053	0.2836483432650198
-0.4764767565312553	0.30094829630565506
-0.4764157213750053	0.31709951466894865
-0.4763546862187553	0.3320411803909643
-0.4762936510625053	0.3457170274591007
-0.4762326159062553	0.3580754050832058
-0.4761715807500053	0.3690697076722296
-0.4761105455937553	0.3786583557685368
-0.4760495104375053	0.3868050403582591
-0.4759884752812553	0.3934788877281731
-0.4759274401250053	0.3986544843984173
-0.4758664049687553	0.40231206308899187
-0.4758053698125053	0.4044375528226999
-0.4757443346562553	0.4050225956176917
-0.4756832995000053	0.40406463645830354
-0.4756222643437553	0.4015669133541968
-0.4755612291875053	0.39753842359108776
-0.4755001940312553	0.3919939424130543
-0.4754391588750053	0.3849539179217904
-0.4753781237187553	0.37644444447654174
-0.4753170885625053	0.3664971313380476
-0.4752560534062553	0.3551489986846122
-0.4751950182500053	0.3424423615127603
-0.4751339830937553	0.32842463347104256
-0.4750729479375053	0.31314818862043714
-0.4750119127812553	0.29667014558592514
-0.4749508776250053	0.27905216733884103
-0.4748898424687553	0.26036022757188565
-0.4748288073125053	0.24066435834434347
-0.4747677721562553	0.22003839197990255
-0.4747067370000053	0.1985597336727957
-0.4746457018437553	0.1763089590310098
-0.4745846666875053	0.153369621454444
-0.4745236315312553	0.12982793572049203
-0.4744625963750053	0.1057723479753184
-0.4744015612187553	0.0812933432435499
-0.4743405260625053	0.05648301189642447
-0.4742794909062553	0.03143475097115591
-0.4742184557500053	0.006242865449710889
-0.4741574205937553	-0.01899769222216895
-0.4740963854375053	-0.04419177970177046
-0.4740353502812553	-0.06924439941611196
-0.4739743151250053	-0.09406096636357804
-0.4739132799687553	-0.11854781797564783
-0.4738522448125053	-0.1426123850308162
-0.4737912096562553	-0.16616375190758859
-0.4737301745000053	-0.18911280371291944
-0.4736691393437553	-0.21137259570414743
-0.4736081041875053	-0.23285891353921298
-0.4735470690312553	-0.25349019761213604
-0.4734860338750053	-0.2731881396392827
-0.4734249987187553	-0.2918779816649831
-0.4733639635625053	-0.30948856316414336
-0.4733029284062553	-0.32595284145221953
-0.4732418932500053	-0.34120803886179113
-0.4731808580937553	-0.35519585743103893
-0.4731198229375053	-0.36786274790891044
-0.4730587877812553	-0.37916009983081145
-0.4729977526250053	-0.38904443607696965
-0.4729367174687553	-0.3974775368308946
-0.4728756823125053	-0.40442665596823024
-0.4728146471562553	-0.40986458716632107
-0.4727536120000053	-0.4137697921322098
-0.4726925768437553	-0.41612649743191327
-0.4726315416875053	-0.41692472489407373
-0.4725705065312553	-0.41616037461588806
-0.4725094713750053	-0.41383520220532066
-0.4724484362187553	-0.4099568406388502
-0.4723874010625053	-0.4045387743328215
-0.4723263659062553	-0.3976002742656659
-0.4722653307500053	-0.38916635322482707
-0.4722042955937553	-0.3792676529347594
-0.4721432604375053	-0.3679403401455304
-0.4720822252812553	-0.3552259950354191
-0.4720211901250053	-0.34117140668130186
-0.4719601549687553	-0.32582844566729197
-0.4718991198125053	-0.3092538869781304
-0.4718380846562553	-0.2915091034704006
-0.4717770495000053	-0.27265995870451337
-0.4717160143437553	-0.25277651490007286
-0.4716549791875053	-0.23193268762517893
-0.4715939440312553	-0.21020613300303018
-0.4715329088750053	-0.1876778401067063
-0.4714718737187553	-0.16443180515930164
-0.4714108385625053	-0.14055486621932575
-0.4713498034062553	-0.11613622291697966
-0.4712887682500053	-0.09126712547139375
-0.4712277330937553	-0.06604066643336064
-0.4711666979375053	-0.04055126342864974
-0.4711056627812553	-0.014894355395136167
-0.4710446276250053	0.010833875505705592
-0.4709835924687553	0.036536965128259324
-0.4709225573125053	0.062118499618141004
-0.4708615221562553	0.0874824682856574
-0.4708004870000053	0.11253359729013294
-0.4707394518437553	0.13717778554968252
-0.4706784166875053	0.16132242459137752
-0.4706173815312553	0.18487667469099986
-0.4705563463750053	0.2077519302864786
-0.4704953112187553	0.22986209927017065
-0.4704342760625053	0.25112389322814627
-0.4703732409062553	0.2714571848182752
-0.4703122057500053	0.2907853377317035
-0.4702511705937553	0.30903543964018043
-0.4701901354375053	0.32613857464388607
-0.4701291002812553	0.34203016743430187
-0.4700680651250053	0.35665015731235256
-0.4700070299687553	0.3699432076272232
-0.4699459948125053	0.38185900223129576
-0.4698849596562553	0.3923523879824638
-0.4698239245000053	0.401383502841026
-0.4697628893437553	0.4089180217956388
