Time	Frequency
-0.5000474743125025	-0.312741694512121
-0.4999864391562525	-0.30402621298765636
-0.4999254040000025	-0.29441968749375996
-0.4998643688437525	-0.2839496813572853
-0.4998033336875025	-0.2726462707640912
-0.4997422985312525	-0.2605418986899622
-0.4996812633750025	-0.24767134056679305
-0.4996202282187525	-0.23407158856280436
-0.4995591930625025	-0.21978169488110902
-0.4994981579062525	-0.2048427629783978
-0.4994371227500025	-0.1892977471234024
-0.4993760875937525	-0.17319134765501976
-0.4993150524375025	-0.15656991205988052
-0.4992540172812525	-0.13948128872280854
-0.4991929821250025	-0.12197465584136774
-0.4991319469687525	-0.10410045339573716
-0.4990709118125025	-0.0859101938212573
-0.4990098766562525	-0.06745626093164431
-0.4989488415000025	-0.048791925507600045
-0.4988878063437525	-0.029970993354135438
-0.4988267711875025	-0.01104778406660022
-0.4987657360312525	0.007923030339992221
-0.4987047008750025	0.026886690147611674
-0.4986436657187525	0.045788351588577796
-0.4985826305625025	0.0645733583684213
-0.4985215954062525	0.08318736909045266
-0.4984605602500025	0.10157644871769997
-0.4983995250937525	0.11968734652397826
-0.4983384899375025	0.13746755979170575
-0.4982774547812525	0.1548654347723113
-0.4982164196250025	0.17183051861370024
-0.4981553844687525	0.18831345742346528
-0.4980943493125025	0.20426627990965532
-0.4980333141562525	0.21964256724262385
-0.4979722790000025	0.23439741535169886
-0.4979112438437525	0.24848779168042265
-0.4978502086875025	0.2618724740401107
-0.4977891735312525	0.2745122440589873
-0.4977281383750025	0.2863700378673722
-0.4976671032187525	0.2974109523139965
-0.4976060680625025	0.30760245939503494
-0.4975450329062525	0.3169144186168051
-0.4974839977500025	0.3253191900047763
-0.4974229625937525	0.33279174532594524
-0.4973619274375025	0.3393096774505309
-0.4973008922812525	0.3448533320870158
-0.4972398571250025	0.3494058263369835
-0.4971788219687525	0.35295310108390304
-0.4971177868125025	0.3554839868449086
-0.4970567516562525	0.3569902020580957
-0.4969957165000025	0.35746641824539505
-0.4969346813437525	0.3569102425085724
-0.4968736461875025	0.35532224302533505
-0.4968126110312525	0.35270595373852937
-0.4967515758750025	0.34906785059117074
-0.4966905407187525	0.3444173470741904
-0.4966295055625025	0.3387667672706315
-0.4965684704062525	0.33213130637314664
-0.4965074352500025	0.3245289968764471
-0.4964464000937525	0.31598065232660677
-0.4963853649375025	0.30650981287675155
-0.4963243297812525	0.2961426796836997
-0.4962632946250025	0.2849080340335108
-0.4962022594687525	0.27283717893927895
-0.4961412243125025	0.2599638122116656
-0.4960801891562525	0.2463239762100692
-0.4960191540000025	0.2319559254904907
-0.4959581188437525	0.21690001519553273
-0.4958970836875025	0.20119862185879997
-0.4958360485312525	0.18489598835863527
-0.4957750133750025	0.16803809975257905
-0.4957139782187525	0.1506725840705978
-0.4956529430625025	0.13284854492949422
-0.4955919079062525	0.11461642660975803
-0.4955308727500025	0.09602789126815309
-0.4954698375937525	0.07713564729162738
-0.4954088024375025	0.05799330733577197
-0.4953477672812525	0.03865523703059009
-0.4952867321250025	0.01917641936767545
-0.4952256969687525	-0.0003877742327158685
-0.4951646618125025	-0.019981620314795723
-0.4951036266562525	-0.039549320671331684
-0.4950425915000025	-0.05903513692364404
-0.4949815563437525	-0.07838343946485453
-0.4949205211875025	-0.09753905613041207
-0.4948594860312525	-0.11644727457416737
-0.4947984508750025	-0.13505404469136786
-0.4947374157187525	-0.1533061922051786
-0.4946763805625025	-0.1711514971046831
-0.4946153454062525	-0.18853884500835824
-0.4945543102500025	-0.20541844143507318
-0.4944932750937525	-0.221741910834197
-0.4944322399375025	-0.23746238128111688
-0.4943712047812525	-0.2525347701907622
-0.4943101696250025	-0.2669157452374497
-0.4942491344687525	-0.280563939710812
-0.4941880993125025	-0.29344010795607167
-0.4941270641562525	-0.3055071097245724
-0.4940660290000025	-0.3167301731706576
-0.4940049938437525	-0.3270768760154288
-0.4939439586875025	-0.3365172788381751
-0.4938829235312525	-0.34502406102854244
-0.4938218883750025	-0.35257251229911
-0.4937608532187525	-0.35914066739963396
-0.4936998180625025	-0.3647093585586071
-0.4936387829062525	-0.36926225936111695
-0.4935777477500025	-0.37278593624110107
-0.4935167125937525	-0.375269898699657
-0.4934556774375025	-0.376706625258467
-0.4933946422812525	-0.37709157902786133
-0.4933336071250025	-0.37642323563453706
-0.4932725719687525	-0.37470307940048675
-0.4932115368125025	-0.3719356041730752
-0.4931505016562525	-0.3681283021027995
-0.4930894665000025	-0.3632916415349835
-0.4930284313437525	-0.35743904397192205
-0.4929673961875025	-0.35058683541923347
-0.4929063610312525	-0.3427542156192643
-0.4928453258750025	-0.3339631983559567
-0.4927842907187525	-0.32423853462383506
-0.4927232555625025	-0.3136076801966245
-0.4926622204062525	-0.3021006696060275
-0.4926011852500025	-0.28975006807153475
-0.4925401500937525	-0.2765908825472129
-0.4924791149375025	-0.262660400840852
-0.4924180797812525	-0.247998184860319
-0.4923570446250025	-0.23264588042137468
-0.4922960094687525	-0.21664709729033407
-0.4922349743125025	-0.20004737094547603
-0.4921739391562525	-0.1828939116286081
-0.4921129040000025	-0.16523555960383912
-0.4920518688437525	-0.14712261713328315
-0.4919908336875025	-0.1286066790201893
-0.4919297985312525	-0.10974054573939528
-0.4918687633750025	-0.09057799502702225
-0.4918077282187525	-0.07117368545946308
-0.4917466930625025	-0.05158299204095973
-0.4916856579062525	-0.03186182575300854
-0.4916246227500025	-0.012066465045437715
-0.4915635875937525	0.007746545058121723
-0.4915025524375025	0.027520637096120727
-0.4914415172812525	0.04719933311851979
-0.4913804821250025	0.06672639543147806
-0.4913194469687525	0.08604605555865585
-0.4912584118125025	0.1051030910013685
-0.4911973766562525	0.12384305884543412
-0.4911363415000025	0.1422123976237099
-0.4910753063437525	0.16015859087523937
-0.4910142711875025	0.17763038169047854
-0.4909532360312525	0.19457782160677997
-0.4908922008750025	0.21095246786215588
-0.4908311657187525	0.22670758115182754
-0.4907701305625025	0.24179809120629292
-0.4907090954062525	0.25618093931105906
-0.4906480602500025	0.2698150668183366
-0.4905870250937525	0.2826614997588927
-0.4905259899375025	0.29468365833622545
-0.4904649547812525	0.3058472321136554
-0.4904039196250025	0.3161204043073545
-0.4903428844687525	0.3254739646700811
-0.4902818493125025	0.33388130180096054
-0.4902208141562525	0.3413185457655423
-0.4901597790000025	0.3477646602316743
-0.4900987438437525	0.3532014092500883
-0.4900377086875025	0.35761350445380985
-0.4899766735312525	0.36098862989303016
-0.4899156383750025	0.3633174165895485
-0.4898546032187525	0.3645935627588362
-0.4897935680625025	0.3648137929400994
-0.4897325329062525	0.3639778759332721
-0.4896714977500025	0.3620886466351113
-0.4896104625937525	0.35915198554500505
-0.4895494274375025	0.35517679728091506
-0.4894883922812525	0.350175001983044
-0.4894273571250025	0.3441614856547482
-0.4893663219687525	0.3371540734441066
-0.4893052868125025	0.329173460360788
-0.4892442516562525	0.3202431761170623
-0.4891832165000025	0.310389489050888
-0.4891221813437525	0.2996413589096146
-0.4890611461875025	0.2880303539458269
-0.4890001110312525	0.2755905005913659
-0.4889390758750025	0.2623583023339949
-0.4888780407187525	0.248372508259126
-0.4888170055625025	0.233674074528867
-0.4887559704062525	0.2183060696113957
-0.4886949352500025	0.20231344554527841
-0.4886339000937525	0.18574301700804224
-0.4885728649375025	0.1686432982620964
-0.4885118297812525	0.15106430723284434
-0.4884507946250025	0.13305746298411367
-0.4883897594687525	0.11467550018924884
-0.4883287243125025	0.09597217082618723
-0.4882676891562525	0.07700220353147184
-0.4882066540000025	0.05782115211706876
-0.4881456188437525	0.038485121076117915
-0.4880845836875025	0.019050728926521557
-0.4880235485312525	-0.00042512650057522153
-0.4879625133750025	-0.019885415321737123
-0.4879014782187525	-0.03927314622664863
-0.4878404430625025	-0.05853150714087693
-0.4877794079062525	-0.07760406785302094
-0.4877183727500025	-0.09643493720611865
-0.4876573375937525	-0.11496887056838692
-0.4875963024375025	-0.13315153655924478
-0.4875352672812525	-0.15092957603682136
-0.4874742321250025	-0.16825077577848688
-0.4874131969687525	-0.1850643117556659
-0.4873521618125025	-0.2013207582062575
-0.4872911266562525	-0.21697231117817542
-0.4872300915000025	-0.23197297974120495
-0.4871690563437525	-0.24627856443318566
-0.4871080211875025	-0.25984694392610186
-0.4870469860312525	-0.2726381310737069
-0.4869859508750025	-0.2846143645771106
-0.4869249157187525	-0.29574028292331217
-0.4868638805625025	-0.3059829615009678
-0.4868028454062525	-0.3153120946773799
-0.4867418102500025	-0.323699971627441
-0.4866807750937525	-0.33112165958797457
-0.4866197399375025	-0.33755505558226445
-0.4865587047812525	-0.34298087561092355
-0.4864976696250025	-0.34738283026673805
-0.4864366344687525	-0.3507475952994974
-0.4863755993125025	-0.3530648586113354
-0.4863145641562525	-0.35432738500887595
-0.4862535290000025	-0.35453101588161917
-0.4861924938437525	-0.35367467731446856
-0.4861314586875025	-0.35176039815984905
-0.4860704235312525	-0.3487933110312318
-0.4860093883750025	-0.3447816129383377
-0.4859483532187525	-0.33973656865408997
-0.4858873180625025	-0.3336724787266403
-0.4858262829062525	-0.32660660335051317
-0.4857652477500025	-0.3185591792914924
-0.4857042125937525	-0.3095532892729057
-0.4856431774375025	-0.2996148530276292
-0.4855821422812525	-0.2887725324906035
-0.4855211071250025	-0.2770576174241212
-0.4854600719687525	-0.26450402439960446
-0.4853990368125025	-0.2511480792933922
-0.4853380016562525	-0.23702851653435655
-0.4852769665000025	-0.22218632136163996
-0.4852159313437525	-0.2066645906128809
-0.4851548961875025	-0.1905084717738077
-0.4850938610312525	-0.17376496187059381
-0.4850328258750025	-0.1564828223694691
-0.4849717907187525	-0.1387124193219209
-0.4849107555625025	-0.12050555429640078
-0.4848497204062525	-0.10191538253633498
-0.4847886852500025	-0.08299617660412405
-0.4847276500937525	-0.06380319377140638
-0.4846666149375025	-0.044392594706633086
-0.4846055797812525	-0.024821120974588443
-0.4845445446250025	-0.0051460927538485605
-0.4844835094687525	0.014574849100455766
-0.4844224743125025	0.034283929865509905
-0.4843614391562525	0.05392330845401723
-0.4843004040000025	0.073435355272986
-0.4842393688437525	0.09276274221356455
-0.4841783336875025	0.11184870239012713
-0.4841172985312525	0.1306370354479164
-0.4840562633750025	0.1490724685897233
-0.4839952282187525	0.16710070041971686
-0.4839341930625025	0.18466849439480026
-0.4838731579062525	0.20172409758636772
-0.4838121227500025	0.2182170435389553
-0.4837510875937525	0.23409855992108747
-0.4836900524375025	0.24932165956877
-0.4836290172812525	0.26384113923628794
-0.4835679821250025	0.2776139306458526
-0.4835069469687525	0.29059905755321674
-0.4834459118125025	0.3027578144360766
-0.4833848766562525	0.3140539160423381
-0.4833238415000025	0.32445354400667953
-0.4832628063437525	0.3339254799340686
-0.4832017711875025	0.34244119926040323
-0.4831407360312525	0.3499749540633402
-0.4830797008750025	0.35650382836441413
-0.4830186657187525	0.3620078337558649
-0.4829576305625025	0.36646997228927847
-0.4828965954062525	0.3698762576748417
-0.4828355602500025	0.3722157822142717
-0.4827745250937525	0.3734807516115978
-0.4827134899375025	0.3736664944178314
-0.4826524547812525	0.372771490519211
-0.4825914196250025	0.3707973717324354
-0.4825303844687525	0.3677489195693578
-0.4824693493125025	0.3636340567723281
-0.4824083141562525	0.35846381963729707
-0.4823472790000025	0.3522523355613223
-0.4822862438437525	0.3450167760217877
-0.4822252086875025	0.33677731292582314
-0.4821641735312525	0.32755706461943845
-0.4821031383750025	0.3173820134665025
-0.4820421032187525	0.306280966059587
-0.4819810680625025	0.29428542308621924
-0.4819200329062525	0.2814295267910975
-0.4818589977500025	0.26774997251697663
-0.4817979625937525	0.2532858258370013
-0.4817369274375025	0.23807852916665914
-0.4816758922812525	0.22217167067708896
-0.4816148571250025	0.205610924627823
-0.4815538219687525	0.18844390814859502
-0.4814927868125025	0.1707200101629816
-0.4814317516562525	0.15249030813885225
-0.4813707165000025	0.13380733044463541
-0.4813096813437525	0.11472503438953523
-0.4812486461875025	0.09529849251434117
-0.4811876110312525	0.07558386099870439
-0.4811265758750025	0.05563818414876976
-0.4810655407187525	0.03551912125557194
-0.4810045055625025	0.015284992611335348
-0.4809434704062525	-0.005005607077622155
-0.4808824352500025	-0.025293876782562823
-0.4808214000937525	-0.045520923103430075
-0.4807603649375025	-0.0656281062414792
-0.4806993297812525	-0.08555701915905425
-0.4806382946250025	-0.10524977106409664
-0.4805772594687525	-0.12464918479177861
-0.4805162243125025	-0.14369882244585036
-0.4804551891562525	-0.16234330830149288
-0.4803941540000025	-0.18052841003029793
-0.4803331188437525	-0.1982011694371637
-0.4802720836875025	-0.2153101654717471
-0.4802110485312525	-0.23180556320121312
-0.4801500133750025	-0.2476392831269988
-0.4800889782187525	-0.26276520465359987
-0.4800279430625025	-0.2771392138631413
-0.4799669079062525	-0.2907193794117501
-0.4799058727500025	-0.30346610627746123
-0.4798448375937525	-0.3153421674722768
-0.4797838024375025	-0.32631290203296076
-0.4797227672812525	-0.3363462751607915
-0.4796617321250025	-0.34541296143324557
-0.4796006969687525	-0.3534864765687324
-0.4795396618125025	-0.36054319491052644
-0.4794786266562525	-0.3665625002840171
-0.4794175915000025	-0.3715267540521778
-0.4793565563437525	-0.37542142895014985
-0.4792955211875025	-0.37823512412872323
-0.4792344860312525	-0.37995955317740654
-0.4791734508750025	-0.38058967507659075
-0.4791124157187525	-0.38012360166822107
-0.4790513805625025	-0.37856266453902904
-0.4789903454062525	-0.3759114162524566
-0.4789293102500025	-0.3721775759645629
-0.4788682750937525	-0.3673720512154348
-0.4788072399375025	-0.3615088896798279
-0.4787462047812525	-0.35460522511735865
-0.4786851696250025	-0.346681268501346
-0.4786241344687525	-0.3377601979466076
-0.4785630993125025	-0.327868136697896
-0.4785020641562525	-0.3170340597541048
-0.4784410290000025	-0.3052896872102373
-0.4783799938437525	-0.2926694546327472
-0.4783189586875025	-0.279210342229081
-0.4782579235312525	-0.2649517952725761
-0.4781968883750025	-0.2499356469944004
-0.4781358532187525	-0.2342059368033328
-0.4780748180625025	-0.2178087825076337
-0.4780137829062525	-0.20079234524443323
-0.4779527477500025	-0.18320653364601766
-0.4778917125937525	-0.16510296494607682
-0.4778306774375025	-0.1465348498398279
-0.4777696422812525	-0.127556639377219
-0.4777086071250025	-0.1082241209467651
-0.4776475719687525	-0.08859411541139268
-0.4775865368125025	-0.0687242318902415
-0.4775255016562525	-0.048672933759164226
-0.4774644665000025	-0.028499127172400593
-0.4774034313437525	-0.008262119814450004
-0.4773423961875025	0.011978565418140512
-0.4772813610312525	0.032163418089104466
-0.4772203258750025	0.052233046925688725
-0.4771592907187525	0.072128445110457
-0.4770982555625025	0.09179102412319444
-0.4770372204062525	0.11116297202151776
-0.4769761852500025	0.13018723042437946
-0.4769151500937525	0.14880781987219055
-0.4768541149375025	0.16696993636074908
-0.4767930797812525	0.18462005485431318
-0.4767320446250025	0.20170626167672237
-0.4766710094687525	0.21817818313094162
-0.4766099743125025	0.23398733045480893
-0.4765489391562525	0.2490871442287618
-0.4764879040000025	0.26343311492111376
-0.4764268688437525	0.2769829922813374
-0.4763658336875025	0.2896968745636752
-0.4763047985312525	0.30153727155640775
-0.4762437633750025	0.312469315968264
-0.4761827282187525	0.3224608211535444
-0.4761216930625025	0.3314823229182027
-0.4760606579062525	0.3395072793845421
-0.4759996227500025	0.3465120570588383
-0.4759385875937525	0.3524760383178534
-0.4758775524375025	0.35738169611520443
-0.4758165172812525	0.36121461500210816
-0.4757554821250025	0.36396355947619935
-0.4756944469687525	0.36562050253088424
-0.4756334118125025	0.3661806411977927
-0.4755723766562525	0.3656424296633725
-0.4755113415000025	0.36400756767728887
-0.4754503063437525	0.3612810058542771
-0.4753892711875025	0.35747093548975056
-0.4753282360312525	0.35258875567394915
-0.4752672008750025	0.34664904930303864
-0.4752061657187525	0.33966953676337097
-0.4751451305625025	0.3316710330011397
-0.4750840954062525	0.32267736388896445
-0.4750230602500025	0.3127153343572506
-0.4749620250937525	0.30181463052930785
-0.4749009899375025	0.2900076840654867
-0.4748399547812525	0.2773297083729737
-0.4747789196250025	0.26381845087948286
-0.4747178844687525	0.24951412774929954
-0.4746568493125025	0.2344594276451575
-0.4745958141562525	0.21869914069769447
-0.4745347790000025	0.20228024424775679
-0.4744737438437525	0.185251732106347
-0.4744127086875025	0.167664292448026
-0.4743516735312525	0.14957041337853189
-0.4742906383750025	0.13102406644698975
-0.4742296032187525	0.1120805511620709
-0.4741685680625025	0.09279640921491585
-0.4741075329062525	0.07322920969505199
-0.4740464977500025	0.0534373857991776
-0.4739854625937525	0.03347999962982389
-0.4739244274375025	0.013416752765781125
-0.4738633922812525	-0.006692439397896298
-0.4738023571250025	-0.026787449328740973
-0.4737413219687525	-0.04680813930279704
-0.4736802868125025	-0.06669463729920538
-0.4736192516562525	-0.08638737063300755
-0.4735582165000025	-0.10582740166258536
-0.4734971813437525	-0.12495641941129153
-0.4734361461875025	-0.14371712477863327
-0.4733751110312525	-0.1620531948300076
-0.4733140758750025	-0.17990959255987676
-0.4732530407187525	-0.19723271075898688
-0.4731920055625025	-0.21397040966275674
-0.4731309704062525	-0.23007240221078495
-0.4730699352500025	-0.24549015301485752
-0.4730089000937525	-0.260177191385809
-0.4729478649375025	-0.27408922572334027
-0.4728868297812525	-0.28718420202054146
-0.4728257946250025	-0.2994224969599732
-0.4727647594687525	-0.3107670451612833
-0.4727037243125025	-0.32118338121637
-0.4726426891562525	-0.3306398111238067
-0.4725816540000025	-0.33910750253158906
-0.4725206188437525	-0.34656050566193985
-0.4724595836875025	-0.3529759258128907
-0.4723985485312525	-0.358333920522295
-0.4723375133750025	-0.3626177986273821
-0.4722764782187525	-0.36581405874132433
-0.4722154430625025	-0.36791242704609867
-0.4721544079062525	-0.36890590490211395
-0.4720933727500025	-0.3687907702495396
-0.4720323375937525	-0.36756661396740364
-0.4719713024375025	-0.3652363240428808
-0.4719102672812525	-0.3618060848707533
-0.4718492321250025	-0.35728537110307657
-0.4717881969687525	-0.3516869001663867
-0.4717271618125025	-0.3450266154104316
-0.4716661266562525	-0.33732363895021533
-0.4716050915000025	-0.3286001912807431
-0.4715440563437525	-0.3188815718870903
-0.4714830211875025	-0.30819604671982687
-0.4714219860312525	-0.2965747752022625
-0.4713609508750025	-0.2840517358999286
-0.4712999157187525	-0.27066360785263716
-0.4712388805625025	-0.25644966535735486
-0.4711778454062525	-0.2414516880393118
-0.4711168102500025	-0.22571378799876107
-0.4710557750937525	-0.20928232265797006
-0.4709947399375025	-0.19220576133601708
-0.4709337047812525	-0.17453449022529474
-0.4708726696250025	-0.15632072470559985
-0.4708116344687525	-0.1376183168413055
-0.4707505993125025	-0.11848263356072049
-0.4706895641562525	-0.09897029319179416
-0.4706285290000025	-0.07913917934240217
-0.4705674938437525	-0.05904809756827054
-0.4705064586875025	-0.038756612466552896
-0.4704454235312525	-0.01832508047201214
-0.4703843883750025	0.002185867599108891
-0.4703233532187525	0.022715221133042012
-0.4702623180625025	0.04320186763216822
-0.4702012829062525	0.06358486265331285
-0.4701402477500025	0.08380345537911559
-0.4700792125937525	0.10379739820180695
-0.4700181774375025	0.12350702917754744
-0.4699571422812525	0.1428735524572363
-0.4698961071250025	0.16183911877740637
-0.4698350719687525	0.18034701431128355
-0.4697740368125025	0.1983419416853798
-0.4697130016562525	0.21577000849995587
