Time	Frequency
-0.5000403344999995	0.33977622695256177
-0.4999792993437495	0.3330098053332611
-0.4999182641874995	0.3252979375201796
-0.4998572290312495	0.31666153751129017
-0.4997961938749995	0.3071241445444352
-0.4997351587187495	0.29671185127468974
-0.4996741235624995	0.28545325581452863
-0.4996130884062495	0.2733793324554699
-0.4995520532499995	0.26052341541207064
-0.4994910180937495	0.24692103634891185
-0.4994299829374995	0.23260987064247704
-0.4993689477812495	0.21762963311143907
-0.4993079126249995	0.20202190758376296
-0.4992468774687495	0.1858301313687017
-0.4991858423124995	0.16909938787131334
-0.4991248071562495	0.15187628708767373
-0.4990637719999995	0.13420891246218733
-0.4990027368437495	0.11614658504081198
-0.4989417016874995	0.09773976771908623
-0.4988806665312495	0.07904000138888388
-0.4988196313749995	0.06009954427386115
-0.4987585962187495	0.04097149847008027
-0.4986975610624995	0.021709494747379997
-0.4986365259062495	0.002367460088404425
-0.4985754907499995	-0.017000232138685976
-0.4985144555937495	-0.03633925521134236
-0.4984534204374995	-0.055595299722458955
-0.4983923852812495	-0.07471420308603971
-0.4983313501249995	-0.09364220975506993
-0.4982703149687495	-0.1123260965050083
-0.4982092798124995	-0.13071326360823243
-0.4981482446562495	-0.14875188829615157
-0.4980872094999995	-0.16639120746034952
-0.4980261743437495	-0.18358146080680193
-0.4979651391874995	-0.2002741731441234
-0.4979041040312495	-0.2164222621210535
-0.4978430688749995	-0.23198012273020593
-0.4977820337187495	-0.24690384338476715
-0.4977209985624995	-0.26115121065448976
-0.4976599634062495	-0.27468199584395375
-0.4975989282499995	-0.28745790509309205
-0.4975378930937495	-0.299442740563919
-0.4974768579374995	-0.3106026343903847
-0.4974158227812495	-0.32090589742317777
-0.4973547876249995	-0.3303233314842285
-0.4972937524687495	-0.3388282178625767
-0.4972327173124995	-0.3463963603576698
-0.4971716821562495	-0.3530062655029152
-0.4971106469999995	-0.35863907617115925
-0.4970496118437495	-0.3632787303329904
-0.4969885766874995	-0.3669119471592296
-0.4969275415312495	-0.36952828489243017
-0.4968665063749995	-0.3711201877571563
-0.4968054712187495	-0.3716829675836114
-0.4967444360624995	-0.3712148623945409
-0.4966834009062495	-0.36971701877068625
-0.4966223657499995	-0.36719349139523305
-0.4965613305937495	-0.3636512399989001
-0.4965002954374995	-0.3591001066037906
-0.4964392602812495	-0.35355278781084964
-0.4963782251249995	-0.347024805314123
-0.4963171899687495	-0.3395344519965033
-0.4962561548124995	-0.3311027620643285
-0.4961951196562495	-0.3217534247668014
-0.4961340844999995	-0.3115127426626495
-0.4960730493437495	-0.3004095400634099
-0.4960120141874995	-0.2884750977872864
-0.4959509790312495	-0.27574306420015043
-0.4958899438749995	-0.2622493203920915
-0.4958289087187495	-0.24803197379993094
-0.4957678735624995	-0.23313112208502385
-0.4957068384062495	-0.21758885332895578
-0.4956458032499995	-0.2014490886179417
-0.4955847680937495	-0.18475739064590077
-0.4955237329374995	-0.16756098132995356
-0.4954626977812495	-0.14990846150629392
-0.4954016626249995	-0.131849742658662
-0.4953406274687495	-0.11343592549906997
-0.4952795923124995	-0.09471910926435545
-0.4952185571562495	-0.07575223678572958
-0.4951575219999995	-0.056589031630799036
-0.4950964868437495	-0.03728373836704753
-0.4950354516874995	-0.017890978053718056
-0.4949744165312495	0.0015342516297224623
-0.4949133813749995	0.02093698437238738
-0.4948523462187495	0.04026225782208987
-0.4947913110624995	0.05945525758090173
-0.4947302759062495	0.07846167004799717
-0.4946692407499995	0.09722760378262252
-0.4946082055937495	0.11569983943171956
-0.4945471704374995	0.13382608766907056
-0.4944861352812495	0.15155492423548914
-0.4944251001249995	0.16883608927310484
-0.4943640649687495	0.18562064672499679
-0.4943030298124995	0.20186095966024128
-0.4942419946562495	0.21751103640420358
-0.4941809594999995	0.23252651047527942
-0.4941199243437495	0.246864816829918
-0.4940588891874995	0.2604853524500784
-0.4939978540312495	0.273349492952427
-0.4939368188749995	0.28542084514233945
-0.4938757837187495	0.29666520832632404
-0.4938147485624995	0.3070507705253758
-0.4937537134062495	0.3165481585170724
-0.4936926782499995	0.32513052055522706
-0.4936316430937495	0.3327736428896119
-0.4935706079374995	0.3394559524735831
-0.4935095727812495	0.3451586537119041
-0.4934485376249995	0.3498657264299822
-0.4933875024687495	0.3535639964669027
-0.4933264673124995	0.356243180665408
-0.4932654321562495	0.35789590060496546
-0.4932043969999995	0.35851771435094004
-0.4931433618437495	0.35810712956645263
-0.4930823266874995	0.3566656050556308
-0.4930212915312495	0.35419755175183715
-0.4929602563749995	0.35071032251864803
-0.4928992212187495	0.3462141817987583
-0.4928381860624995	0.34072229167082846
-0.4927771509062495	0.3342506695009043
-0.4927161157499995	0.32681812947710026
-0.4926550805937495	0.3184462608352924
-0.4925940454374995	0.30915933643073207
-0.4925330102812495	0.29898425266912154
-0.4924719751249995	0.28795047980023286
-0.4924109399687495	0.2760899212230902
-0.4923499048124995	0.26343689243908797
-0.4922888696562495	0.2500279675534955
-0.4922278344999995	0.23590189109048473
-0.4921667993437495	0.22109952425661286
-0.4921057641874995	0.20566358280770916
-0.4920447290312495	0.18963871103108387
-0.4919836938749995	0.17307120856622746
-0.4919226587187495	0.15600890345551488
-0.4918616235624995	0.1385011656391814
-0.4918005884062495	0.12059852600920326
-0.4917395532499995	0.10235275979738076
-0.4916785180937495	0.083816612514325
-0.4916174829374995	0.06504364508430892
-0.4915564477812495	0.04608816897589423
-0.4914954126249995	0.02700497815637271
-0.4914343774687495	0.007849314784555882
-0.4913733423124995	-0.011323428767433301
-0.4913123071562495	-0.03045774851323325
-0.4912512719999995	-0.049498211738012506
-0.4911902368437495	-0.06838973462062725
-0.4911292016874995	-0.08707753779910292
-0.4910681665312495	-0.10550745004300435
-0.4910071313749995	-0.12362607623678128
-0.4909460962187495	-0.14138082002405983
-0.4908850610624995	-0.1587201558463215
-0.4908240259062495	-0.17559374752142012
-0.4907629907499995	-0.19195255573529033
-0.4907019555937495	-0.20774900816122704
-0.4906409204374995	-0.22293717591247372
-0.4905798852812495	-0.23747281430856834
-0.4905188501249995	-0.2513135566283498
-0.4904578149687495	-0.26441906742391463
-0.4903967798124995	-0.2767510388926181
-0.4903357446562495	-0.2882734296623323
-0.4902747094999995	-0.2989525192351931
-0.4902136743437495	-0.30875697352195497
-0.4901526391874995	-0.31765798259870603
-0.4900916040312495	-0.3256293510062997
-0.4900305688749995	-0.3326475164440403
-0.4899695337187495	-0.33869166950889457
-0.4899084985624995	-0.3437438272046263
-0.4898474634062495	-0.3477888077669116
-0.4897864282499995	-0.3508143760631997
-0.4897253930937495	-0.35281121359906126
-0.4896643579374995	-0.35377294959082956
-0.4896033227812495	-0.35369623105261955
-0.4895422876249995	-0.35258067435158436
-0.4894812524687495	-0.3504288979991688
-0.4894202173124995	-0.34724652049865923
-0.4893591821562495	-0.3430421327263001
-0.4892981469999995	-0.33782727522470346
-0.4892371118437495	-0.33161641925130814
-0.4891760766874995	-0.3244269188128454
-0.4891150415312495	-0.31627894818116326
-0.4890540063749995	-0.30719548078431286
-0.4889929712187495	-0.2972021913447813
-0.4889319360624995	-0.2863273869777239
-0.4888709009062495	-0.2746019554761597
-0.4888098657499995	-0.26205925129029034
-0.4887488305937495	-0.2487349906920565
-0.4886877954374995	-0.23466718994152688
-0.4886267602812495	-0.21989603315831088
-0.4885657251249995	-0.20446373609232152
-0.4885046899687495	-0.18841447226684402
-0.4884436548124995	-0.17179421944544743
-0.4883826196562495	-0.15465062433942134
-0.4883215844999995	-0.13703287320009527
-0.4882605493437495	-0.11899156918738046
-0.4881995141874995	-0.10057854950759272
-0.4881384790312495	-0.08184676482188864
-0.4880774438749995	-0.06285013327015476
-0.4880164087187495	-0.04364334071426609
-0.4879553735624995	-0.024281764006107008
-0.4878943384062495	-0.004821204487434252
-0.4878333032499995	0.01468216940641724
-0.4877722680937495	0.034172021506683116
-0.4877112329374995	0.05359209544909048
-0.4876501977812495	0.07288617001254456
-0.4875891626249995	0.091998461173401
-0.4875281274687495	0.11087364584207758
-0.4874670923124995	0.1294569727204533
-0.4874060571562495	0.14769461249087817
-0.4873450219999995	0.16553361777669384
-0.4872839868437495	0.1829221523728515
-0.4872229516874995	0.19980969655568995
-0.4871619165312495	0.21614710565259504
-0.4871008813749995	0.23188676421849902
-0.4870398462187495	0.24698280412854137
-0.4869788110624995	0.2613911487911035
-0.4869177759062495	0.2750696529836474
-0.4868567407499995	0.2879782976424426
-0.4867957055937495	0.30007922270621695
-0.4867346704374995	0.31133686232464464
-0.4866736352812495	0.3217180864091019
-0.4866126001249995	0.3311922505686474
-0.4865515649687495	0.33973128505371936
-0.4864905298124995	0.347309847629374
-0.4864294946562495	0.3539052983496542
-0.4863684594999995	0.3594978191103532
-0.4863074243437495	0.36407051459855627
-0.4862463891874995	0.36760934841052884
-0.4861853540312495	0.3701033004844949
-0.4861243188749995	0.3715443540676501
-0.4860632837187495	0.3719274810911603
-0.4860022485624995	0.3712507400852311
-0.4859412134062495	0.3695152234330448
-0.4858801782499995	0.3667250650652968
-0.4858191430937495	0.36288745761789387
-0.4857581079374995	0.3580126048776679
-0.4856970727812495	0.35211369969652057
-0.4856360376249995	0.34520690529182796
-0.4855750024687495	0.33731128659810855
-0.4855139673124995	0.32844877209585566
-0.4854529321562495	0.3186440892520993
-0.4853918969999995	0.30792469185507015
-0.4853308618437495	0.2963206790739287
-0.4852698266874995	0.28386472940501084
-0.4852087915312495	0.2705919800709166
-0.4851477563749995	0.25653994243427136
-0.4850867212187495	0.24174840455308097
-0.4850256860624995	0.22625928992271363
-0.4849646509062495	0.21011657574596532
-0.4849036157499995	0.19336610690840061
-0.4848425805937495	0.17605556498368463
-0.4847815454374995	0.1582342014172541
-0.4847205102812495	0.13995281252342834
-0.4846594751249995	0.12126354814611723
-0.4845984399687495	0.10221969944853512
-0.4845374048124995	0.08287570269509861
-0.4844763696562495	0.06328678376692291
-0.4844153344999995	0.0435089933681027
-0.4843542993437495	0.02359887772547871
-0.4842932641874995	0.003613430747713734
-0.4842322290312495	-0.016390079947199886
-0.4841711938749995	-0.0363544078076881
-0.4841101587187495	-0.05622227908729472
-0.4840491235624995	-0.07593673779736439
-0.4839880884062495	-0.0954412448088188
-0.4839270532499995	-0.1146798042453082
-0.4838660180937495	-0.13359719083945623
-0.4838049829374995	-0.1521390952490947
-0.4837439477812495	-0.17025222646472077
-0.4836829126249995	-0.1878845375683964
-0.4836218774687495	-0.20498535809058854
-0.4835608423124995	-0.2215054851961817
-0.4834998071562495	-0.23739741997961608
-0.4834387719999995	-0.2526154453080198
-0.4833777368437495	-0.26711574153811724
-0.4833167016874995	-0.28085658204053726
-0.4832556665312495	-0.29379839988174217
-0.4831946313749995	-0.3059039219040328
-0.4831335962187495	-0.3171382751325866
-0.4830725610624995	-0.32746909009227343
-0.4830115259062495	-0.336866598473116
-0.4829504907499995	-0.3453037090318471
-0.4828894555937495	-0.35275611775601196
-0.4828284204374995	-0.35920231820976584
-0.4827673852812495	-0.3646237413038645
-0.4827063501249995	-0.36900476407661986
-0.4826453149687495	-0.37233273674938433
-0.4825842798124995	-0.3745980999528978
-0.4825232446562495	-0.37579432296278303
-0.4824622094999995	-0.3759179687036629
-0.4824011743437495	-0.37496873002089415
-0.4823401391874995	-0.37294936462893225
-0.4822791040312495	-0.3698657453121604
-0.4822180688749995	-0.36572683392463123
-0.4821570337187495	-0.3605446209605374
-0.4820959985624995	-0.3543341477887833
-0.4820349634062495	-0.34711341806205254
-0.4819739282499995	-0.3389033652722263
-0.4819128930937495	-0.32972780729726603
-0.4818518579374995	-0.31961333542255405
-0.4817908227812495	-0.30858930322320793
-0.4817297876249995	-0.29668767196227125
-0.4816687524687495	-0.28394296269846514
-0.4816077173124995	-0.27039217276973315
-0.4815466821562495	-0.2560745939365065
-0.4814856469999995	-0.24103179443599002
-0.4814246118437495	-0.2253074401456738
-0.4813635766874995	-0.20894715124056285
-0.4813025415312495	-0.19199845873170432
-0.4812415063749995	-0.17451057297722933
-0.4811804712187495	-0.15653425416878405
-0.4811194360624995	-0.13812176750999502
-0.4810584009062495	-0.11932657661252448
-0.4809973657499995	-0.10020328066281788
-0.4809363305937495	-0.08080750497067442
-0.4808752954374995	-0.06119557275066052
-0.4808142602812495	-0.0414245349541276
-0.4807532251249995	-0.021551863347081136
-0.4806921899687495	-0.0016353405890788249
-0.4806311548124995	0.01826707262898864
-0.4805701196562495	0.03809753866247274
-0.4805090844999995	0.057798286245862994
-0.4804480493437495	0.07731205305249585
-0.4803870141874995	0.09658203086735133
-0.4803259790312495	0.11555207795572205
-0.4802649438749995	0.1341670580801266
-0.4802039087187495	0.1523726920072274
-0.4801428735624995	0.17011599509515182
-0.4800818384062495	0.18734530097430607
-0.4800208032499995	0.20401039128578344
-0.4799597680937495	0.22006274118195446
-0.4798987329374995	0.23545556867763545
-0.4798376977812495	0.2501440250717245
-0.4797766626249995	0.2640852807876008
-0.4797156274687495	0.27723873254648457
-0.4796545923124995	0.28956602164077166
-0.4795935571562495	0.30103119759383323
-0.4795325219999995	0.31160087254044844
-0.4794714868437495	0.3212441967974432
-0.4794104516874995	0.3299330703620953
-0.4793494165312495	0.3376421669488194
-0.4792883813749995	0.34434900144026487
-0.4792273462187495	0.3500340434353333
-0.4791663110624995	0.35468071674894486
-0.4791052759062495	0.3582755027525553
-0.4790442407499995	0.3608079433667627
-0.4789832055937495	0.3622706894649827
-0.4789221704374995	0.36265952935489104
-0.4788611352812495	0.36197337422722126
-0.4788001001249995	0.3602143054806391
-0.4787390649687495	0.3573875309977328
-0.4786780298124995	0.3535013894814376
-0.4786169946562495	0.34856733221598973
-0.4785559594999995	0.34259987370195705
-0.4784949243437495	0.3356165650276289
-0.4784338891874995	0.3276379436924557
-0.4783728540312495	0.3186874566367074
-0.4783118188749995	0.30879142700194834
-0.4782507837187495	0.2979789385906473
-0.4781897485624995	0.28628177156761847
-0.4781287134062495	0.27373434202762775
-0.4780676782499995	0.260373512456827
-0.4780066430937495	0.24623860338802067
-0.4779456079374995	0.23137119414032112
-0.4778845727812495	0.21581499201308016
-0.4778235376249995	0.19961581901279957
-0.4777625024687495	0.18282132204314833
-0.4777014673124995	0.1654809491799858
-0.4776404321562495	0.14764579536042047
-0.4775793969999995	0.12936833645191484
-0.4775183618437495	0.11070248489661022
-0.4774573266874995	0.09170322963395534
-0.4773962915312495	0.07242654953164376
-0.4773352563749995	0.05292936910790568
-0.4772742212187495	0.03326913488092522
-0.4772131860624995	0.0135039062219667
-0.4771521509062495	-0.006307956282677552
-0.4770911157499995	-0.02610798433668745
-0.4770300805937495	-0.04583762253146091
-0.4769690454374995	-0.06543857701188395
-0.4769080102812495	-0.08485288977993316
-0.4768469751249995	-0.10402308852131893
-0.4767859399687495	-0.1228924388754744
-0.4767249048124995	-0.14140506784270204
-0.4766638696562495	-0.15950605481519528
-0.4766028344999995	-0.17714177604358528
-0.4765417993437495	-0.19425986995703529
-0.4764807641874995	-0.21080945814573493
-0.4764197290312495	-0.2267414292801912
-0.4763586938749995	-0.24200830082004962
-0.4762976587187495	-0.2565646465816708
-0.4762366235624995	-0.2703670804090249
-0.4761755884062495	-0.2833743515977225
-0.4761145532499995	-0.2955476346427751
-0.4760535180937495	-0.30685043585596755
-0.4759924829374995	-0.31724885644283024
-0.4759314477812495	-0.32671165122362994
-0.4758704126249995	-0.33521026883025223
-0.4758093774687495	-0.34271902005854216
-0.4757483423124995	-0.3492150874274015
-0.4756873071562495	-0.35467863736941024
-0.4756262719999995	-0.3590928612836281
-0.4755652368437495	-0.36244401562742085
-0.4755042016874995	-0.3647215025386869
-0.4754431665312495	-0.365917856825938
-0.4753821313749995	-0.3660287946959173
-0.4753210962187495	-0.3650532373621221
-0.4752600610624995	-0.36299328847409457
-0.4751990259062495	-0.35985424426177787
-0.4751379907499995	-0.35564459755791905
-0.4750769555937495	-0.3503759739318761
-0.4750159204374995	-0.34406313426590446
-0.4749548852812495	-0.3367239316318377
-0.4748938501249995	-0.3283792200017489
-0.4748328149687495	-0.31905286241580816
-0.4747717798124995	-0.308771600138445
-0.4747107446562495	-0.2975649984166915
-0.4746497094999995	-0.2854653966839592
-0.4745886743437495	-0.2725077362732228
-0.4745276391874995	-0.25872953576466695
-0.4744666040312495	-0.24417075314511366
-0.4744055688749995	-0.22887363892358276
-0.4743445337187495	-0.21288268834014698
-0.4742834985624995	-0.19624441175764692
-0.4742224634062495	-0.17900729781720104
-0.4741614282499995	-0.16122162806019633
-0.4741003930937495	-0.14293926715806862
-0.4740393579374995	-0.12421366771894564
-0.4739783227812495	-0.10509954725319491
-0.4739172876249995	-0.0856528212899321
-0.4738562524687495	-0.06593045064113535
-0.4737952173124995	-0.04599018356360518
-0.4737341821562495	-0.02589050394085942
-0.4736731469999995	-0.005690363599218951
-0.4736121118437495	0.014550945298127402
-0.4735510766874995	0.0347739509852188
-0.4734900415312495	0.054919230215344186
-0.4734290063749995	0.07492752776270152
-0.4733679712187495	0.09473995965698898
-0.4733069360624995	0.11429820085615515
-0.4732459009062495	0.13354459420214332
-0.4731848657499995	0.15242240715986718
-0.4731238305937495	0.17087594939120124
-0.4730627954374995	0.18885068730927446
-0.4730017602812495	0.20629357067588733
-0.4729407251249995	0.22315298405060305
-0.4728796899687495	0.23937900589315358
-0.4728186548124995	0.2549236449264452
-0.4727576196562495	0.2697407483475938
-0.4726965844999995	0.28378634570691996
-0.4726355493437495	0.29701874800182504
-0.4725745141874995	0.30939853449357496
-0.4725134790312495	0.320888841342289
-0.4724524438749995	0.3314554038488418
-0.4723914087187495	0.3410665836510011
-0.4723303735624995	0.3496936122556352
-0.4722693384062495	0.3573105605292944
-0.4722083032499995	0.36389444638466056
-0.4721472680937495	0.36942535001833604
-0.4720862329374995	0.37388638939752666
-0.4720251977812495	0.37726386600069167
-0.4719641626249995	0.37954722816290054
-0.4719031274687495	0.38072914518333284
-0.4718420923124995	0.3808055382887968
-0.4717810571562495	0.37977554732802543
-0.4717200219999995	0.37764159318128593
-0.4716589868437495	0.374409334472213
-0.4715979516874995	0.3700876597982875
-0.4715369165312495	0.36468867439880726
-0.4714758813749995	0.3582276588661169
-0.4714148462187495	0.3507230171552037
-0.4713538110624995	0.34219624141120136
-0.4712927759062495	0.3326718466876427
-0.4712317407499995	0.322177273876018
-0.4711707055937495	0.31074285942246227
-0.4711096704374995	0.2984017021777605
-0.4710486352812495	0.28518958664281296
-0.4709876001249995	0.27114489264109054
-0.4709265649687495	0.2563084374783912
-0.4708655298124995	0.24072342380812692
-0.4708044946562495	0.22443525182580124
-0.4707434594999995	0.20749142025399286
-0.4706824243437495	0.1899413877397343
-0.4706213891874995	0.1718363951111126
-0.4705603540312495	0.1532293738153752
-0.4704993188749995	0.13417472607698577
-0.4704382837187495	0.11472819869466526
-0.4703772485624995	0.0949467414691621
-0.4703162134062495	0.07488828473117311
-0.4702551782499995	0.05461161144940724
-0.4701941430937495	0.034176164521250094
-0.4701331079374995	0.013641895071122864
-0.4700720727812495	-0.006930964850940598
-0.4700110376249995	-0.027482021260903676
-0.4699500024687495	-0.04795089737887437
-0.4698889673124995	-0.06827754100089613
-0.4698279321562495	-0.08840214270474912
-0.4697668969999995	-0.10826557729579933
