Time	Frequency
-0.5000259871562491	1.5439128659414458e-24
-0.49996495199999913	1.5640408744801256e-24
-0.49990391684374913	1.5795364571344851e-24
-0.49984288168749913	1.5903537493395399e-24
-0.49978184653124913	1.5964607931641675e-24
-0.49972081137499913	1.5978396532259186e-24
-0.49965977621874913	1.5944862715277134e-24
-0.49959874106249913	1.5864107240296503e-24
-0.49953770590624913	1.5736370318374397e-24
-0.49947667074999913	1.556203158495022e-24
-0.49941563559374913	1.53416090938975e-24
-0.49935460043749913	1.5075757767927366e-24
-0.49929356528124913	1.4765267076945851e-24
-0.49923253012499913	1.4411059623017643e-24
-0.49917149496874913	1.4014188027704357e-24
-0.49911045981249913	1.3575830863827306e-24
-0.49904942465624913	1.3097291678066598e-24
-0.49898838949999913	1.2579992775160968e-24
-0.49892735434374913	1.202547123080432e-24
-0.49886631918749913	1.14353773833893e-24
-0.49880528403124913	1.0811465236189236e-24
-0.49874424887499913	1.0155590729958617e-24
-0.49868321371874913	9.469706830212433e-25
-0.49862217856249913	8.755852720627227e-25
-0.49856114340624913	8.016155150607121e-25
-0.49850010824999913	7.252816518768349e-25
-0.49843907309374913	6.46810864158483e-25
-0.49837803793749913	5.664371574886628e-25
-0.49831700278124913	4.843999070802659e-25
-0.49825596762499913	4.009436152925977e-25
-0.49819493246874913	3.1631726299090546e-25
-0.49813389731249913	2.3077307262722567e-25
-0.49807286215624913	1.4456630539437288e-25
-0.49801182699999913	5.79543620840163e-26
-0.49795079184374913	-2.8804402100769853e-26
-0.49788975668749913	-1.154508178462241e-25
-0.49782872153124913	-2.0172597955845391e-25
-0.49776768637499913	-2.8737217288802654e-25
-0.49770665121874913	-3.7213325932045656e-25
-0.49764561606249913	-4.557557856168164e-25
-0.49758458090624913	-5.379895659855917e-25
-0.49752354574999913	-6.185883811927247e-25
-0.49746251059374913	-6.97310917879435e-25
-0.49740147543749913	-7.739212520153638e-25
-0.49734044028124913	-8.481897138747904e-25
-0.49727940512499913	-9.19893523534659e-25
-0.49721836996874913	-9.888174329397356e-25
-0.49715733481249913	-1.054754434171159e-24
-0.49709629965624913	-1.1175062973611553e-24
-0.49703526449999913	-1.1768842419943314e-24
-0.49697422934374913	-1.2327094001343688e-24
-0.49691319418749913	-1.2848135380860673e-24
-0.49685215903124913	-1.3330393668964269e-24
-0.49679112387499913	-1.3772410620059861e-24
-0.49673008871874913	-1.4172848486474202e-24
-0.49666905356249913	-1.453049229458099e-24
-0.49660801840624913	-1.4844253431428611e-24
-0.49654698324999913	-1.5113175376017657e-24
-0.49648594809374913	-1.5336433786164374e-24
-0.49642491293749913	-1.5513339769308179e-24
-0.49636387778124913	-1.5643344275397465e-24
-0.49630284262499913	-1.572603549081916e-24
-0.49624180746874913	-1.5761144249263648e-24
-0.49618077231249913	-1.5748543204761436e-24
-0.49611973715624913	-1.568824610722385e-24
-0.49605870199999913	-1.5580410254249629e-24
-0.49599766684374913	-1.5425334468709429e-24
-0.49593663168749913	-1.5223458333602199e-24
-0.49587559653124913	-1.4975361947618192e-24
-0.49581456137499913	-1.4681763235837846e-24
-0.49575352621874913	-1.4343516172711239e-24
-0.49569249106249913	-1.3961608935454945e-24
-0.49563145590624913	-1.3537159883330694e-24
-0.49557042074999913	-1.3071415352310005e-24
-0.49550938559374913	-1.2565745245678423e-24
-0.49544835043749913	-1.2021639904944753e-24
-0.49538731528124913	-1.1440704234920055e-24
-0.49532628012499913	-1.0824654614787416e-24
-0.49526524496874913	-1.0175313353361723e-24
-0.49520420981249913	-9.494601788499567e-25
-0.49514317465624913	-8.784537266531545e-25
-0.49508213949999913	-8.047225451075666e-25
-0.49502110434374913	-7.284853892250271e-25
-0.49496006918749913	-6.499686275035394e-25
-0.49489903403124913	-5.694056650249086e-25
-0.49483799887499913	-4.870359278344554e-25
-0.49477696371874913	-4.0310452105467053e-25
-0.49471592856249913	-3.1786137242024774e-25
-0.49465489340624913	-2.3156019889361056e-25
-0.49459385824999913	-1.4445835628103768e-25
-0.49453282309374913	-5.681553346987889e-26
-0.49447178793749913	3.110694337294544e-26
-0.49441075278124913	1.1904642608949407e-25
-0.49434971762499913	2.0674042329714e-25
-0.49428868246874913	2.9392694773371364e-25
-0.49422764731249913	3.8034515228387237e-25
-0.49416661215624913	4.657367695749513e-25
-0.49410557699999913	5.498461165514477e-25
-0.49404454184374913	6.324212662854081e-25
-0.49398350668749913	7.132149553646473e-25
-0.49392247153124913	7.919848413631046e-25
-0.49386143637499913	8.684946135502046e-25
-0.49380040121874913	9.425146741574916e-25
-0.49373936606249913	1.013822576476423e-24
-0.49367833090624913	1.082203935674329e-24
-0.49361729574999913	1.147453087116285e-24
-0.49355626059374913	1.209373397057255e-24
-0.49349522543749913	1.267778314778753e-24
-0.49343419028124913	1.322491519541948e-24
-0.49337315512499913	1.3733476808345166e-24
-0.49331211996874913	1.4201929960189236e-24
-0.49325108481249913	1.4628853391894006e-24
-0.49319004965624913	1.501295201810243e-24
-0.49312901449999913	1.5353055851262007e-24
-0.49306797934374913	1.5648126175773534e-24
-0.49300694418749913	1.5897259753903274e-24
-0.49294590903124913	1.6099687837372109e-24
-0.49288487387499913	1.6254782140191204e-24
-0.49282383871874913	1.636205601673821e-24
-0.49276280356249913	1.6421164019561635e-24
-0.49270176840624913	1.643190518503774e-24
-0.49264073324999913	1.6394223479009102e-24
-0.49257969809374913	1.630820639775067e-24
-0.49251866293749913	1.6174086603645953e-24
-0.49245762778124913	1.5992240798555793e-24
-0.49239659262499913	1.5763187724490882e-24
-0.49233555746874913	1.5487588116572712e-24
-0.49227452231249913	1.5166241886631815e-24
-0.49221348715624913	1.4800085828162889e-24
-0.49215245199999913	1.4390191506548555e-24
-0.49209141684374913	1.3937761215597204e-24
-0.49203038168749913	1.344412534087041e-24
-0.49196934653124913	1.291073790594262e-24
-0.49190831137499913	1.2339172137475214e-24
-0.49184727621874913	1.1731116401867596e-24
-0.49178624106249913	1.1088368850710127e-24
-0.49172520590624913	1.0412832198735815e-24
-0.49166417074999913	9.706506969529013e-25
-0.49160313559374913	8.97148869927424e-25
-0.49154210043749913	8.209958093145148e-25
-0.49148106528124913	7.4241745705457345e-25
-0.49142003012499913	6.616475481983075e-25
-0.49135899496874913	5.789260363619559e-25
-0.49129795981249913	4.944988777686735e-25
-0.49123692465624913	4.086175204485625e-25
-0.49117588949999913	3.215374634476948e-25
-0.49111485434374913	2.3351810854156565e-25
-0.49105381918749913	1.4482182417823522e-25
-0.49099278403124913	5.571290851679542e-26
-0.49093174887499913	-3.354294360837542e-26
-0.49087071371874913	-1.2267930770256765e-25
-0.49080967856249913	-2.1143041005165727e-25
-0.49074864340624913	-2.995312310785324e-25
-0.49068760824999913	-3.867185373402682e-25
-0.49062657309374913	-4.7273224616096485e-25
-0.49056553793749913	-5.573150167282832e-25
-0.49050450278124913	-6.402142422934227e-25
-0.49044346762499913	-7.211821094822589e-25
-0.49038243246874913	-7.999763709009565e-25
-0.49032139731249913	-8.763615146887854e-25
-0.49026036215624913	-9.501087633652762e-25
-0.49019932699999913	-1.0209977286963304e-24
-0.49013829184374913	-1.088815994438439e-24
-0.49007725668749913	-1.1533605204200691e-24
-0.49001622153124913	-1.2144382529332378e-24
-0.48995518637499913	-1.2718659453958334e-24
-0.48989415121874913	-1.3254717462004449e-24
-0.48983311606249913	-1.375095043221015e-24
-0.48977208090624913	-1.4205869901777225e-24
-0.48971104574999913	-1.4618113560623004e-24
-0.48965001059374913	-1.4986445726826664e-24
-0.48958897543749913	-1.5309761208427618e-24
-0.48952794028124913	-1.5587091408855954e-24
-0.48946690512499913	-1.581760502904259e-24
-0.48940586996874913	-1.6000610399202887e-24
-0.48934483481249913	-1.6135559894031832e-24
-0.48928379965624913	-1.6222049011774476e-24
-0.48922276449999913	-1.6259819311272277e-24
-0.48916172934374913	-1.6248758850126298e-24
-0.48910069418749913	-1.618890213189019e-24
-0.48903965903124913	-1.6080430964621307e-24
-0.48897862387499913	-1.5923672990705586e-24
-0.48891758871874913	-1.5719101487350954e-24
-0.48885655356249913	-1.5467333772550617e-24
-0.48879551840624913	-1.5169129229797871e-24
-0.48873448324999913	-1.4825387388201132e-24
-0.48867344809374913	-1.4437145233619394e-24
-0.48861241293749913	-1.4005573574815676e-24
-0.48855137778124913	-1.3531974950917693e-24
-0.48849034262499913	-1.3017777721691721e-24
-0.48842930746874913	-1.2464533837864467e-24
-0.48836827231249913	-1.187391370857931e-24
-0.48830723715624913	-1.1247699034702823e-24
-0.48824620199999913	-1.0587781506125983e-24
-0.48818516684374913	-9.89615363091218e-25
-0.48812413168749913	-9.17490471993203e-25
-0.48806309653124913	-8.426213700621982e-25
-0.48800206137499913	-7.6523426517001505e-25
-0.48794102621874913	-6.855631701152683e-25
-0.48787999106249913	-6.03848768464121e-25
-0.48781895590624913	-5.203383908181429e-25
-0.48775792074999913	-4.3528449234764605e-25
-0.48769688559374913	-3.4894435437076824e-25
-0.48763585043749913	-2.615795866515597e-25
-0.48757481528124913	-1.734542113586169e-25
-0.48751378012499913	-8.483541636982966e-26
-0.48745274496874913	4.008403272956226e-27
-0.48739170981249913	9.28082747252029e-26
-0.48733067465624913	1.812947532699785e-25
-0.48726963949999913	2.691998042251322e-25
-0.48720860434374913	3.5625663662336595e-25
-0.48714756918749913	4.422012254846286e-25
-0.48708653403124913	5.267726963269627e-25
-0.48702549887499913	6.097140854113697e-25
-0.48696446371874913	6.907737517111777e-25
-0.48690342856249913	7.697050301403265e-25
-0.48684239340624913	8.462680123596321e-25
-0.48678135824999913	9.20229980800766e-25
-0.48672032309374913	9.913654475754111e-25
-0.48665928793749913	1.0594580116207283e-24
-0.48659825278124913	1.1243001101030595e-24
-0.48653721762499913	1.1856938440710942e-24
-0.48647618246874913	1.2434519289806268e-24
-0.48641514731249913	1.2973978616359108e-24
-0.48635411215624913	1.3473666563312762e-24
-0.48629307699999913	1.3932052232204814e-24
-0.48623204184374913	1.4347731357994631e-24
-0.48617100668749913	1.4719426027783963e-24
-0.48610997153124913	1.5045991857006434e-24
-0.48604893637499913	1.5326422138667647e-24
-0.48598790121874913	1.5559847031027405e-24
-0.48592686606249913	1.5745540757091194e-24
-0.48586583090624913	1.5882921002357343e-24
-0.48580479574999913	1.5971551484738017e-24
-0.48574376059374913	1.6011144181729717e-24
-0.48568272543749913	1.6001558609516688e-24
-0.48562169028124913	1.594280412561483e-24
-0.48556065512499913	1.5835038724558539e-24
-0.48549961996874913	1.5678568941283242e-24
-0.48543858481249913	1.5473849399603652e-24
-0.48537754965624913	1.522148107872191e-24
-0.48531651449999913	1.492220946104444e-24
-0.48525547934374913	1.4576923039984596e-24
-0.48519444418749913	1.418664990391515e-24
-0.48513340903124913	1.3752554850204837e-24
-0.48507237387499913	1.3275937051322374e-24
-0.48501133871874913	1.2758223782744456e-24
-0.48495030356249913	1.2200968915282061e-24
-0.48488926840624913	1.1605846580572565e-24
-0.48482823324999913	1.0974645837939918e-24
-0.48476719809374913	1.0309267272773668e-24
-0.48470616293749913	9.611715509386164e-25
-0.48464512778124913	8.884093037266314e-25
-0.48458409262499913	8.128595824828936e-25
-0.48452305746874913	7.34750507664386e-25
-0.48446202231249913	6.543179455448317e-25
-0.48440098715624913	5.718052141718475e-25
-0.48433995199999913	4.874617217771039e-25
-0.48427891684374913	4.0154283434560503e-25
-0.48421788168749913	3.1430871082341805e-25
-0.48415684653124913	2.2602348293579166e-25
-0.48409581137499913	1.369550159607516e-25
-0.48403477621874913	4.7373231538279855e-26
-0.48397374106249913	-4.2450041092092794e-26
-0.48391270590624913	-1.3224203481074653e-25
-0.48385167074999913	-2.217300346678005e-25
-0.48379063559374913	-3.106422369232998e-25
-0.48372960043749913	-3.9870811578473043e-25
-0.48366856528124913	-4.856598706023794e-25
-0.48360753012499913	-5.712329507636673e-25
-0.48354649496874913	-6.551664503398313e-25
-0.48348545981249913	-7.372049371564593e-25
-0.48342442465624913	-8.170980920398832e-25
-0.48336338949999913	-8.946021370405903e-25
-0.48330235434374913	-9.694805982383101e-25
-0.48324131918749913	-1.041504523064622e-24
-0.48318028403124913	-1.1104537486466603e-24
-0.48311924887499913	-1.1761173235993263e-24
-0.48305821371874913	-1.2382940396718404e-24
-0.48299717856249913	-1.296793211187822e-24
-0.48293614340624913	-1.3514353600576288e-24
-0.48287510824999913	-1.402052423502077e-24
-0.48281407309374913	-1.4484885575486269e-24
-0.48275303793749913	-1.4906006412908158e-24
-0.48269200278124913	-1.5282584193887714e-24
-0.48263096762499913	-1.5613452257724044e-24
-0.48256993246874913	-1.5897582138902134e-24
-0.48250889731249913	-1.6134085794645097e-24
-0.48244786215624913	-1.6322220764203299e-24
-0.48238682699999913	-1.6461389968297045e-24
-0.48232579184374913	-1.6551145228099676e-24
-0.48226475668749913	-1.659118845408942e-24
-0.48220372153124913	-1.6581371664847947e-24
-0.48214268637499913	-1.6521699177140136e-24
-0.48208165121874913	-1.64123260035435e-24
-0.48202061606249913	-1.6253558484640078e-24
-0.48195958090624913	-1.6045853414941118e-24
-0.48189854574999913	-1.5789815933064301e-24
-0.48183751059374913	-1.5486198781198118e-24
-0.48177647543749913	-1.5135899502473443e-24
-0.48171544028124913	-1.4739957565970335e-24
-0.48165440512499913	-1.4299552116703847e-24
-0.48159336996874913	-1.3815997966448847e-24
-0.48153233481249913	-1.3290740935473387e-24
-0.48147129965624913	-1.2725355033202104e-24
-0.48141026449999913	-1.2121537135863423e-24
-0.48134922934374913	-1.148110000343829e-24
-0.48128819418749913	-1.080597124299924e-24
-0.48122715903124913	-1.0098182895706343e-24
-0.48116612387499913	-9.35986625114631e-25
-0.48110508871874913	-8.593250105473332e-25
-0.48104405356249913	-7.800646415391606e-25
-0.48098301840624913	-6.984448169476625e-25
-0.48092198324999913	-6.147123576077146e-25
-0.48086094809374913	-5.291202444100772e-25
-0.48079991293749913	-4.419274664677451e-25
-0.48073887778124913	-3.53397962732033e-25
-0.48067784262499913	-2.6379971675614293e-25
-0.48061680746874913	-1.7340429850612127e-25
-0.48055577231249913	-8.24855224321482e-26
-0.48049473715624913	8.680727439709861e-27
-0.48043370199999913	9.981803823219667e-26
-0.48037266684374913	1.9064989386478382e-25
-0.48031163168749913	2.809002369368053e-25
-0.48025059653124913	3.702953523328179e-25
-0.48018956137499913	4.5856341922397535e-25
-0.48012852621874913	5.454361474074001e-25
-0.48006749106249913	6.306495705383595e-25
-0.48000645590624913	7.139443048385243e-25
-0.47994542074999913	7.950670659936934e-25
-0.47988438559374913	8.73770865420828e-25
-0.47982335043749913	9.498160813858215e-25
-0.47976231528124913	1.0229711120087817e-24
-0.47970128012499913	1.0930129593290604e-24
-0.47964024496874913	1.1597282156201871e-24
-0.47957920981249913	1.2229134017901028e-24
-0.47951817465624913	1.2823757477592134e-24
-0.47945713949999913	1.3379337706626545e-24
-0.47939610434374913	1.3894178714777041e-24
-0.47933506918749913	1.4366706955381235e-24
-0.47927403403124913	1.4795478729833142e-24
-0.47921299887499913	1.5179183142797852e-24
-0.47915196371874913	1.5516644199549478e-24
-0.47909092856249913	1.5806830163947894e-24
-0.47902989340624913	1.6048850342056847e-24
-0.47896885824999913	1.624196111571797e-24
-0.47890782309374913	1.6385569779629068e-24
-0.47884678793749913	1.6479232017200175e-24
-0.47878575278124913	1.6522657400358508e-24
-0.47872471762499913	1.6515708688545954e-24
-0.47866368246874913	1.6458401634002708e-24
-0.47860264731249913	1.6350906594933237e-24
-0.47854161215624913	1.6193547018446947e-24
-0.47848057699999913	1.5986798607059693e-24
-0.47841954184374913	1.5731288448860782e-24
-0.47835850668749913	1.5427792667731706e-24
-0.47829747153124913	1.507723435013586e-24
-0.47823643637499913	1.4680680600601299e-24
-0.47817540121874913	1.4239340021454994e-24
-0.47811436606249913	1.3754557801806122e-24
-0.47805333090624913	1.3227812667683325e-24
-0.47799229574999913	1.2660713097371123e-24
-0.47793126059374913	1.2054989889461797e-24
-0.47787022543749913	1.1412493493380826e-24
-0.47780919028124913	1.0735188289946634e-24
-0.47774815512499913	1.0025144145992452e-24
-0.47768711996874913	9.284532235717266e-25
-0.47762608481249913	8.515620008992482e-25
-0.47756504965624913	7.720759400887069e-25
-0.47750401449999913	6.9023836444851345e-25
-0.47744297934374913	6.063000746771513e-25
-0.47738194418749913	5.205180286448767e-25
-0.47732090903124913	4.331551721829983e-25
-0.47725987387499913	3.44479403667773e-25
-0.47719883871874913	2.547625316417712e-25
-0.47713780356249913	1.6427977510112102e-25
-0.47707676840624913	7.33088415936466e-26
-0.47701573324999913	-1.7871045369467267e-26
-0.47695469809374913	-1.0898004768922939e-25
-0.47689366293749913	-1.997381177995265e-25
-0.47683262778124913	-2.8986648092346677e-25
-0.47677159262499913	-3.7908823855372433e-25
-0.47671055746874913	-4.671287652206022e-25
-0.47664952231249913	-5.537174965744717e-25
-0.47658848715624913	-6.3858789791860405e-25
-0.47652745199999913	-7.21478637607923e-25
-0.47646641684374913	-8.021345642121922e-25
-0.47640538168749913	-8.80306971422303e-25
-0.47634434653124913	-9.557550671304143e-25
-0.47628331137499913	-1.0282460676383331e-24
-0.47622227621874913	-1.0975561900438952e-24
-0.47616124106249913	-1.1634715982030887e-24
-0.47610020590624913	-1.2257884712228702e-24
-0.47603917074999913	-1.2843141689181954e-24
-0.47597813559374913	-1.3388676405519932e-24
-0.47591710043749913	-1.3892798089487463e-24
-0.47585606528124913	-1.4353944671862805e-24
-0.47579503012499913	-1.4770684168250635e-24
-0.47573399496874913	-1.5141720464014844e-24
-0.47567295981249913	-1.5465898872698399e-24
-0.47561192465624913	-1.5742206803272255e-24
-0.47555088949999913	-1.596977891135399e-24
-0.47548985434374913	-1.6147900251523209e-24
-0.47542881918749913	-1.6276006144902662e-24
-0.47536778403124913	-1.6353686692536568e-24
-0.47530674887499913	-1.6380686781208099e-24
-0.47524571371874913	-1.635690640374615e-24
-0.47518467856249913	-1.6282402662394746e-24
-0.47512364340624913	-1.6157388158530425e-24
-0.47506260824999913	-1.598223118504123e-24
-0.47500157309374913	-1.575745450202726e-24
-0.47494053793749913	-1.548373386466433e-24
-0.47487950278124913	-1.5161895834237352e-24
-0.47481846762499913	-1.479291533206396e-24
-0.47475743246874913	-1.4377913316516934e-24
-0.47469639731249913	-1.3918152412421988e-24
-0.47463536215624913	-1.3415033288230734e-24
-0.47457432699999913	-1.2870092289722773e-24
-0.47451329184374913	-1.2284992691339728e-24
-0.47445225668749913	-1.166152434305131e-24
-0.47439122153124913	-1.1001596032030287e-24
-0.47433018637499913	-1.0307226967943226e-24
-0.47426915121874913	-9.580547208513045e-25
-0.47420811606249913	-8.823784115801762e-25
-0.47414708090624913	-8.039260444407142e-25
-0.47408604574999913	-7.229385362588632e-25
-0.47402501059374913	-6.396645872427413e-25
-0.47396397543749913	-5.543602895964873e-25
-0.47390294028124913	-4.672878296355025e-25
-0.47384190512499913	-3.787152179848102e-25
-0.47378086996874913	-2.889150744225815e-25
-0.47371983481249913	-1.9816385483097542e-25
-0.47365879965624913	-1.0674133186848358e-25
-0.47359776449999913	-1.4929134264775685e-26
-0.47353672934374913	7.698949941453086e-26
-0.47347569418749913	1.6873098575371656e-25
-0.47341465903124913	2.6001223344317492e-25
-0.47335362387499913	3.5055122722696274e-25
-0.47329258871874913	4.400683630083065e-25
-0.47323155356249913	5.282868746477714e-25
-0.47317051840624913	6.14933965957409e-25
-0.47310948324999913	6.997415007918796e-25
-0.47304844809374913	7.82446957215502e-25
-0.47298741293749913	8.627941186958788e-25
-0.47292637778124913	9.40533934738865e-25
-0.47286534262499913	1.015425384920035e-24
-0.47280430746874913	1.0872359235960485e-24
-0.47274327231249913	1.1557425761082724e-24
-0.47268223715624913	1.2207323746119075e-24
-0.47262120199999913	1.2820031661975302e-24
-0.47256016684374913	1.3393640955509966e-24
-0.47249913168749913	1.3926363241477855e-24
-0.47243809653124913	1.4416536501135674e-24
