Time	Frequency
-0.5000052453750001	-0.26837437165673483
-0.49994421021875013	-0.25369815174683424
-0.49988317506250013	-0.2381850991638031
-0.49982213990625013	-0.22188450256046519
-0.49976110475000013	-0.20484821049429303
-0.49970006959375013	-0.18713037120628395
-0.49963903443750013	-0.16878743438287044
-0.49957799928125013	-0.14987779470654916
-0.49951696412500013	-0.13046172656065613
-0.49945592896875013	-0.11060115976139615
-0.49939489381250013	-0.0903594563563924
-0.49933385865625013	-0.06980124220387697
-0.49927282350000013	-0.04899218884063054
-0.49921178834375013	-0.02799884756852146
-0.49915075318750013	-0.00688828575458834
-0.49908971803125013	0.01427186528022679
-0.49902868287500013	0.035413846975262654
-0.49896764771875013	0.05647000246014163
-0.49890661256250013	0.07737271194174583
-0.49884557740625013	0.09805494549396813
-0.49878454225000013	0.11845033991164683
-0.49872350709375013	0.13849329207619882
-0.49866247193750013	0.15811936856676848
-0.49860143678125013	0.1772654335579914
-0.49854040162500013	0.19586976681774665
-0.49847936646875013	0.21387237093296493
-0.49841833131250013	0.23121517798726685
-0.49835729615625013	0.24784208278560046
-0.49829626100000013	0.2636992911909952
-0.49823522584375013	0.27873545310050524
-0.49817419068750013	0.29290169412883077
-0.49811315553125013	0.30615198732115684
-0.49805212037500013	0.3184431497149533
-0.49799108521875013	0.32973500123896876
-0.49793005006250013	0.33999056973547787
-0.49786901490625013	0.34917611662725273
-0.49780797975000013	0.3572613074795694
-0.49774694459375013	0.36421930284973836
-0.49768590943750013	0.3700268095274036
-0.49762487428125013	0.37466419876215634
-0.49756383912500013	0.3781155672388887
-0.49750280396875013	0.3803687475228678
-0.49744176881250013	0.38141540696942183
-0.49738073365625013	0.3812510441228236
-0.49731969850000013	0.3798749944752113
-0.49725866334375013	0.377290472348403
-0.49719762818750013	0.37350453747898127
-0.49713659303125013	0.36852806524853743
-0.49707555787500013	0.3623757485237238
-0.49701452271875013	0.35506602420046585
-0.49695348756250013	0.34662101817608426
-0.49689245240625013	0.3370665084173746
-0.49683141725000013	0.32643179084269885
-0.49677038209375013	0.314749648887792
-0.49670934693750013	0.30205620447976705
-0.49664831178125013	0.28839081411926043
-0.49658727662500013	0.2737959906901009
-0.49652624146875013	0.25831717447977
-0.49646520631250013	0.24200270148491082
-0.49640417115625013	0.22490358837509045
-0.49634313600000013	0.20707333018190213
-0.49628210084375013	0.18856785275587432
-0.49622106568750013	0.16944524465708966
-0.49616003053125013	0.14976554116655777
-0.49609899537500013	0.12959067230184187
-0.49603796021875013	0.10898413428634848
-0.49597692506250013	0.08801080352084693
-0.49591588990625013	0.06673684119543916
-0.49585485475000013	0.04522935428117576
-0.49579381959375013	0.023556226733974804
-0.49573278443750013	0.00178591825791255
-0.49567174928125013	-0.020012713495030202
-0.49561071412500013	-0.04177078372889741
-0.49554967896875013	-0.06341942323973809
-0.49548864381250013	-0.08489003446447113
-0.49542760865625013	-0.10611470008857486
-0.49536657350000013	-0.1270260722030378
-0.49530553834375013	-0.14755785136038882
-0.49524450318750013	-0.1676449663470485
-0.49518346803125013	-0.18722357910589082
-0.49512243287500013	-0.20623154771433522
-0.49506139771875013	-0.22460852322689773
-0.49500036256250013	-0.24229604176967837
-0.49493932740625013	-0.2592378768137872
-0.49487829225000013	-0.27538015553612766
-0.49481725709375013	-0.29067146068907956
-0.49475622193750013	-0.3050630974677604
-0.49469518678125013	-0.3185092432739533
-0.49463415162500013	-0.33096699564829696
-0.49457311646875013	-0.34239661431670665
-0.49451208131250013	-0.3527616403218677
-0.49445104615625013	-0.362028920240236
-0.49439001100000013	-0.3701688416727555
-0.49432897584375013	-0.377155351867734
-0.49426794068750013	-0.38296603502034543
-0.49420690553125013	-0.3875822405844664
-0.49414587037500013	-0.39098910303773476
-0.49408483521875013	-0.3931755948488413
-0.49402380006250013	-0.39413458065886553
-0.49396276490625013	-0.3938628294305177
-0.49390172975000013	-0.3923610217763559
-0.49384069459375013	-0.38963377060491483
-0.49377965943750013	-0.3856895768897895
-0.49371862428125013	-0.38054083955004797
-0.49365758912500013	-0.3742037843347425
-0.49359655396875013	-0.3666984360188954
-0.49353551881250013	-0.3580485524338804
-0.49347448365625013	-0.3482815348854442
-0.49341344850000013	-0.337428364258308
-0.49335241334375013	-0.32552348988082624
-0.49329137818750013	-0.3126047279286735
-0.49323034303125013	-0.2987131147801684
-0.49316930787500013	-0.2838928438797888
-0.49310827271875013	-0.2681910330083428
-0.49304723756250013	-0.2516576573428163
-0.49298620240625013	-0.23434535995323832
-0.49292516725000013	-0.21630922797949143
-0.49286413209375013	-0.1976067464621905
-0.49280309693750013	-0.17829749603091974
-0.49274206178125013	-0.1584429882149611
-0.49268102662500013	-0.13810654148319657
-0.49261999146875013	-0.11735298568201011
-0.49255895631250013	-0.09624846852303963
-0.49249792115625013	-0.07486038339164676
-0.49243688600000013	-0.05325688407118975
-0.49237585084375013	-0.03150690434262904
-0.49231481568750013	-0.009679942805005313
-0.49225378053125013	0.012154474322626481
-0.49219274537500013	0.033926561301961145
-0.49213171021875013	0.05556680972294887
-0.49207067506250013	0.07700621608811961
-0.49200963990625013	0.09817622027280161
-0.49194860475000013	0.11900930055709141
-0.49188756959375013	0.1394389138594752
-0.49182653443750013	0.15939979589622694
-0.49176549928125013	0.17882826260806417
-0.49170446412500013	0.1976622071247281
-0.49164342896875013	0.21584155384410814
-0.49158239381250013	0.23330822479204893
-0.49152135865625013	0.2500064705418937
-0.49146032350000013	0.2658830054415039
-0.49139928834375013	0.2808871413299842
-0.49133825318750013	0.2949710585563225
-0.49127721803125013	0.308089786384297
-0.49121618287500013	0.3202015661283616
-0.49115514771875013	0.3312677913553551
-0.49109411256250013	0.34125323702162547
-0.49103307740625013	0.35012618773543236
-0.49097204225000013	0.3578584320120395
-0.49091100709375013	0.36442549957180054
-0.49084997193750013	0.3698066273271735
-0.49078893678125013	0.37398486706698025
-0.49072790162500013	0.3769471745910726
-0.49066686646875013	0.37868438996005194
-0.49060583131250013	0.3791913086563212
-0.49054479615625013	0.37846670396013765
-0.49048376100000013	0.3765133016350761
-0.49042272584375013	0.37333779957150104
-0.49036169068750013	0.3689508361237157
-0.49030065553125013	0.36336696102484284
-0.49023962037500013	0.35660458352425983
-0.49017858521875013	0.34868592571758517
-0.49011755006250013	0.33963694199502675
-0.49005651490625013	0.3294872328556062
-0.48999547975000013	0.3182699814963516
-0.48993444459375013	0.30602179475448854
-0.48987340943750013	0.29278263257373005
-0.48981237428125013	0.27859568050372546
-0.48975133912500013	0.2635071522471597
-0.48969030396875013	0.24756622595360273
-0.48962926881250013	0.2308248304990452
-0.48956823365625013	0.2133374777481569
-0.48950719850000013	0.19516114292624887
-0.48944616334375013	0.17635499593946413
-0.48938512818750013	0.15698028644218814
-0.48932409303125013	0.13710012440735125
-0.48926305787500013	0.11677923680122126
-0.48920202271875013	0.09608382963908428
-0.48914098756250013	0.07508130959662684
-0.48907995240625013	0.05384012352751369
-0.48901891725000013	0.03242947169505906
-0.48895788209375013	0.010919150333029095
-0.48889684693750013	-0.010620689983229233
-0.48883581178125013	-0.0321198458109393
-0.48877477662500013	-0.05350812924417381
-0.48871374146875013	-0.0747157870296004
-0.48865270631250013	-0.09567358261952941
-0.48859167115625013	-0.11631303132318808
-0.48853063600000013	-0.13656676283521343
-0.48846960084375013	-0.15636853654849245
-0.48840856568750013	-0.17565358237001363
-0.48834753053125013	-0.19435882929835166
-0.48828649537500013	-0.21242301172520853
-0.48822546021875013	-0.22978692358536118
-0.48816442506250013	-0.2463936666536921
-0.48810338990625013	-0.26218871638091673
-0.48804235475000013	-0.2771201739275574
-0.48798131959375013	-0.2911389631487341
-0.48792028443750013	-0.30419889726110205
-0.48785924928125013	-0.3162569267796355
-0.48779821412500013	-0.3272732091108508
-0.48773717896875013	-0.3372112888966761
-0.48767614381250013	-0.3460381809937041
-0.48761510865625013	-0.35372449532755734
-0.48755407350000013	-0.36024456111921105
-0.48749303834375013	-0.3655764382806559
-0.48743200318750013	-0.36970206850495624
-0.48737096803125013	-0.372607304834614
-0.48730993287500013	-0.37428194188746483
-0.48724889771875013	-0.3747197756879042
-0.48718786256250013	-0.3739186251246764
-0.48712682740625013	-0.3718803220755943
-0.48706579225000013	-0.36861072719051324
-0.48700475709375013	-0.3641197074352835
-0.48694372193750013	-0.35842109570410646
-0.48688268678125013	-0.3515326687617142
-0.48682165162500013	-0.34347607322805723
-0.48676061646875013	-0.33427675884842956
-0.48669958131250013	-0.323963926707408
-0.48663854615625013	-0.3125703851062986
-0.48657751100000013	-0.3001324818066859
-0.48651647584375013	-0.2866900180919878
-0.48645544068750013	-0.27228600786777424
-0.48639440553125013	-0.2569666849980732
-0.48633337037500013	-0.2407812825477513
-0.48627233521875013	-0.2237817983972927
-0.48621130006250013	-0.20602303116024157
-0.48615026490625013	-0.18756220020010506
-0.48608922975000013	-0.16845881731453838
-0.48602819459375013	-0.14877464282862907
-0.48596715943750013	-0.1285732466558296
-0.48590612428125013	-0.10791991891305405
-0.48584508912500013	-0.08688160218663911
-0.48578405396875013	-0.06552635907542309
-0.48572301881250013	-0.043923403106224654
-0.48566198365625013	-0.02214287714826712
-0.48560094850000013	-0.0002553671385682986
-0.48553991334375013	0.021667973205195326
-0.48547887818750013	0.04355588729386327
-0.48541784303125013	0.06533723679628611
-0.48535680787500013	0.08694110788393672
-0.48529577271875013	0.10829711768542126
-0.48523473756250013	0.1293356913965415
-0.48517370240625013	0.14998823012712864
-0.48511266725000013	0.17018723187930737
-0.48505163209375013	0.1898667863579162
-0.48499059693750013	0.20896251669147187
-0.48492956178125013	0.22741187980548128
-0.48486852662500013	0.24515449882626403
-0.48480749146875013	0.26213212545523074
-0.48474645631250013	0.2782890075485728
-0.48468542115625013	0.29357203654208847
-0.48462438600000013	0.30793087306894695
-0.48456335084375013	0.3213181219586549
-0.48450231568750013	0.3336895637430164
-0.48444128053125013	0.3450042141310568
-0.48438024537500013	0.35522444150225363
-0.48431921021875013	0.3643162445456164
-0.48425817506250013	0.3722491609618403
-0.48419713990625013	0.37899648904415356
-0.48413610475000013	0.384535415520192
-0.48407506959375013	0.3888469352852396
-0.48401403443750013	0.3919160714766079
-0.48395299928125013	0.3937318644143916
-0.48389196412500013	0.3942873759673807
-0.48383092896875013	0.3935797775807606
-0.48376989381250013	0.39161032908641885
-0.48370885865625013	0.3883843756268784
-0.48364782350000013	0.383911337373473
-0.48358678834375013	0.3782046934008735
-0.48352575318750013	0.37128191889955076
-0.48346471803125013	0.36316444747007803
-0.48340368287500013	0.3538775929788453
-0.48334264771875013	0.34345048359158326
-0.48328161256250013	0.33191595561279236
-0.48322057740625013	0.31931043807101017
-0.48315954225000013	0.30567389311159304
-0.48309850709375013	0.29104960603023255
-0.48303747193750013	0.2754840994527599
-0.48297643678125013	0.25902700156326736
-0.48291540162500013	0.24173080749306292
-0.48285436646875013	0.2236507968538891
-0.48279333131250013	0.20484482502042473
-0.48273229615625013	0.18537308639145167
-0.48267126100000013	0.165298022835113
-0.48261022584375013	0.14468403759899787
-0.48254919068750013	0.12359727037533583
-0.48248815553125013	0.10210552545577871
-0.48242712037500013	0.08027787530222392
-0.48236608521875013	0.05818450401710291
-0.48230505006250013	0.03589658726586849
-0.48224401490625013	0.01348584859089181
-0.48218297975000013	-0.008975495824113371
-0.48212194459375013	-0.031415003119163724
-0.48206090943750013	-0.053760362880645125
-0.48199987428125013	-0.07593945003385165
-0.48193883912500013	-0.09788067362981578
-0.48187780396875013	-0.11951322897842029
-0.48181676881250013	-0.1407672032371883
-0.48175573365625013	-0.16157395255931264
-0.48169469850000013	-0.1818662348526593
-0.48163366334375013	-0.20157840776932023
-0.48157262818750013	-0.2206467900124361
-0.48151159303125013	-0.2390096454634941
-0.48145055787500013	-0.25660758521447063
-0.48138952271875013	-0.273383688214569
-0.48132848756250013	-0.2892835886436962
-0.48126745240625013	-0.3042558736108681
-0.48120641725000013	-0.3182520432438922
-0.48114538209375013	-0.33122676214159386
-0.48108434693750013	-0.34313802977949276
-0.48102331178125013	-0.3539472578970628
-0.48096227662500013	-0.3636194524162299
-0.48090124146875013	-0.37212327059923705
-0.48084020631250013	-0.37943119554916177
-0.48077917115625013	-0.38551956967476425
-0.48071813600000013	-0.39036868803629854
-0.48065710084375013	-0.39396290194630085
-0.48059606568750013	-0.3962905985692008
-0.48053503053125013	-0.3973443143186167
-0.48047399537500013	-0.3971207200671352
-0.48041296021875013	-0.39562063121844016
-0.48035192506250013	-0.3928490374451873
-0.48029088990625013	-0.38881505239608
-0.48022985475000013	-0.38353191179880225
-0.48016881959375013	-0.3770169242611082
-0.48010778443750013	-0.3692913974185069
-0.48004674928125013	-0.3603806192452134
-0.47998571412500013	-0.3503137087586402
-0.47992467896875013	-0.3391235824780516
-0.47986364381250013	-0.32684682623818034
-0.47980260865625013	-0.3135235561620291
-0.47974157350000013	-0.299197335390995
-0.47968053834375013	-0.2839149687448725
-0.47961950318750013	-0.2677264477277164
-0.47955846803125013	-0.2506846683114197
-0.47949743287500013	-0.2328453404664047
-0.47943639771875013	-0.21426683216345435
-0.47937536256250013	-0.19500985523203898
-0.47931432740625013	-0.1751374032893368
-0.47925329225000013	-0.1547144917836572
-0.47919225709375013	-0.13380789988516828
-0.47913122193750013	-0.11248605583878865
-0.47907018678125013	-0.09081870516534739
-0.47900915162500013	-0.06887676445524
-0.47894811646875013	-0.04673205902069569
-0.47888708131250013	-0.024457060036314315
-0.47882604615625013	-0.0021247200139212176
-0.47876501100000013	0.020191864106277883
-0.47870397584375013	0.042419583006115195
-0.47864294068750013	0.06448564521705424
-0.47858190553125013	0.086317766509812
-0.47852087037500013	0.1078444030432092
-0.47845983521875013	0.12899502952327688
-0.47839880006250013	0.14970033133482194
-0.47833776490625013	0.16989242542967642
-0.47827672975000013	0.18950512842517683
-0.47821569459375013	0.20847415020458113
-0.47815465943750013	0.22673724806614362
-0.47809362428125013	0.24423456823407058
-0.47803258912500013	0.2609087087255811
-0.47797155396875013	0.2767049521081812
-0.47791051881250013	0.291571498980928
-0.47784948365625013	0.3054595646026237
-0.47778844850000013	0.3183235723447215
-0.47772741334375013	0.3301212955467765
-0.47766637818750013	0.34081405163430206
-0.47760534303125013	0.3503667188255791
-0.47754430787500013	0.35874794044382724
-0.47748327271875013	0.3659302554253171
-0.47742223756250013	0.37189005245793033
-0.47736120240625013	0.37660780822632794
-0.47730016725000013	0.3800680697197565
-0.47723913209375013	0.3822594817461007
-0.47717809693750013	0.38317491626381295
-0.47711706178125013	0.38281141380305256
-0.47705602662500013	0.3811702313222459
-0.47699499146875013	0.37825684324403974
-0.47693395631250013	0.3740809102803268
-0.47687292115625013	0.36865625869268814
-0.47681188600000013	0.3620008309680471
-0.47675085084375013	0.35413663893477887
-0.47668981568750013	0.3450896775042039
-0.47662878053125013	0.3348898522608801
-0.47656774537500013	0.32357088656528893
-0.47650671021875013	0.31117019189846545
-0.47644567506250013	0.29772876906274454
-0.47638463990625013	0.28329107537849224
-0.47632360475000013	0.26790483186483544
-0.47626256959375013	0.2516209599509372
-0.47620153443750013	0.23449332266568168
-0.47614049928125013	0.21657858247853182
-0.47607946412500013	0.19793607532767116
-0.47601842896875013	0.17862746710255492
-0.47595739381250013	0.1587167426982825
-0.47589635865625013	0.13826984739767312
-0.47583532350000013	0.11735450737063267
-0.47577428834375013	0.0960400921179837
-0.47571325318750013	0.07439722571336828
-0.47565221803125013	0.0524977118597247
-0.47559118287500013	0.03041421692644606
-0.47553014771875013	0.008220026228200691
-0.47546911256250013	-0.014011162245769745
-0.47540807740625013	-0.036205489256497546
-0.47534704225000013	-0.05828921426143052
-0.47528600709375013	-0.0801889128039836
-0.47522497193750013	-0.10183169599333236
-0.47516393678125013	-0.1231455895716563
-0.47510290162500013	-0.1440595754464601
-0.47504186646875013	-0.16450395344246319
-0.47498083131250013	-0.18441060961937522
-0.47491979615625013	-0.2037130621589517
-0.47485876100000013	-0.22234686579615917
-0.47479772584375013	-0.2402497695747333
-0.47473669068750013	-0.2573618598988931
-0.47467565553125013	-0.2736258194977951
-0.47461462037500013	-0.28898714254124525
-0.47455358521875013	-0.303394255892487
-0.47449255006250013	-0.3167986882258812
-0.47443151490625013	-0.32915531845842944
-0.47437047975000013	-0.34042243695030694
-0.47430944459375013	-0.3505618900337834
-0.47424840943750013	-0.3595392937964639
-0.47418737428125013	-0.3673240478003473
-0.47412633912500013	-0.37388947471396716
-0.47406530396875013	-0.379212964875342
-0.47400426881250013	-0.3832759477275785
-0.47394323365625013	-0.38606404828834845
-0.47388219850000013	-0.3875670983509974
-0.47382116334375013	-0.3877791593470496
-0.47376012818750013	-0.3866985848056851
-0.47369909303125013	-0.38432798283872616
-0.47363805787500013	-0.3806742461813057
-0.47357702271875013	-0.37574851249732544
-0.47351598756250013	-0.36956613668881766
-0.47345495240625013	-0.36214663669540786
-0.47339391725000013	-0.3535136462048447
-0.47333288209375013	-0.3436948178776263
-0.47327184693750013	-0.3327217461747149
-0.47321081178125013	-0.32062988406138976
-0.47314977662500013	-0.30745836916094965
-0.47308874146875013	-0.2932499795394553
-0.47302770631250013	-0.278050928226545
-0.47296667115625013	-0.2619107143705902
-0.47290563600000013	-0.2448820467468858
-0.47284460084375013	-0.2270205307455763
-0.47278356568750013	-0.2083846059996142
-0.47272253053125013	-0.18903531850307634
-0.47266149537500013	-0.1690360823123396
-0.47260046021875013	-0.14845251878428561
-0.47253942506250013	-0.1273522139502693
-0.47247838990625013	-0.10580456656200342
-0.47241735475000013	-0.08388036761772409
-0.47235631959375013	-0.061651829468035775
-0.47229528443750013	-0.039192201749255265
-0.47223424928125013	-0.016575402110326435
-0.47217321412500013	0.006123862280399001
-0.47211217896875013	0.028830718052792612
-0.47205114381250013	0.0514702122560319
-0.47199010865625013	0.0739674865509228
-0.47192907350000013	0.09624816348487213
-0.47186803834375013	0.11823853182120558
-0.47180700318750013	0.13986579247353126
-0.47174596803125013	0.16105825944761262
-0.47168493287500013	0.18174572151766322
-0.47162389771875013	0.2018595082282038
-0.47156286256250013	0.2213328576710291
-0.47150182740625013	0.24010107740984218
-0.47144079225000013	0.25810173265908104
-0.47137975709375013	0.27527493724875995
-0.47131872193750013	0.2915634728215787
-0.47125768678125013	0.3069130263491042
-0.47119665162500013	0.321272328353727
-0.47113561646875013	0.33459340817355554
-0.47107458131250013	0.34683164625448454
-0.47101354615625013	0.35794599669785604
-0.47095251100000013	0.3678991254011875
-0.47089147584375013	0.3766574718790083
-0.47083044068750013	0.38419145599067395
-0.47076940553125013	0.39047549713290175
-0.47070837037500013	0.395488137176553
-0.47064733521875013	0.3992121281738902
-0.47058630006250013	0.4016344494739806
-0.47052526490625013	0.4027463952705699
-0.47046422975000013	0.40254358542227986
-0.47040319459375013	0.4010259714837029
