Time	Frequency
-0.5000499171562467	-1.4028201413108167e-25
-0.4999888819999967	-7.061320820877813e-26
-0.4999278468437467	-5.787902225944648e-28
-0.4998668116874967	6.948898698464013e-26
-0.4998057765312467	1.3925728285110934e-25
-0.4997447413749967	2.0839478402271703e-25
-0.4996837062187467	2.765729685099614e-25
-0.4996226710624967	3.43467741134606e-25
-0.4995616359062467	4.087611983371523e-25
-0.4995006007499967	4.721427770951265e-25
-0.4994395655937467	5.333111576596303e-25
-0.4993785304374967	5.91975404138783e-25
-0.4993174952812467	6.478565463646514e-25
-0.4992564601249967	7.006888006647729e-25
-0.4991954249687467	7.502209131228936e-25
-0.4991343898124967	7.962175178503095e-25
-0.4990733546562467	8.384598570257407e-25
-0.4990123194999967	8.767473515137595e-25
-0.4989512843437467	9.108982543312065e-25
-0.4988902491874967	9.407504558990436e-25
-0.4988292140312467	9.66162684820022e-25
-0.4987681788749967	9.870147534727632e-25
-0.4987071437187467	1.003208283426664e-24
-0.4986461085624967	1.014667365542676e-24
-0.4985850734062467	1.02133868735093e-24
-0.4985240382499967	1.0231919234448352e-24
-0.4984630030937467	1.0202198782843401e-24
-0.4984019679374967	1.0124384829173034e-24
-0.4983409327812467	9.99886779243595e-25
-0.4982798976249967	9.82626729776848e-25
-0.4982188624687467	9.607429067395391e-25
-0.4981578273124967	9.343420275507949e-25
-0.4980967921562467	9.035526863043641e-25
-0.4980357569999967	8.68524451255725e-25
-0.4979747218437467	8.294272003710625e-25
-0.4979136866874967	7.864506451574471e-25
-0.4978526515312467	7.398029403957654e-25
-0.4977916163749967	6.89709931294545e-25
-0.4977305812187467	6.364141502478799e-25
-0.4976695460624967	5.801734892781693e-25
-0.4976085109062467	5.212600293683663e-25
-0.4975474757499967	4.599586973140831e-25
-0.4974864405937467	3.9656597109852973e-25
-0.4974254054374967	3.3138840340547696e-25
-0.4973643702812467	2.64741166428846e-25
-0.4973033351249967	1.9694637405325414e-25
-0.4972422999687467	1.283318798873917e-25
-0.4971812648124967	5.92294520166772e-26
-0.4971202296562467	-1.0027069988039776e-26
-0.4970591944999967	-7.910267819575216e-26
-0.4969981593437467	-1.476635019749834e-25
-0.4969371241874967	-2.153782368326908e-25
-0.4968760890312467	-2.819193475668746e-25
-0.4968150538749967	-3.4696535831523437e-25
-0.4967540187187467	-4.102018234552368e-25
-0.4966929835624967	-4.713229252011528e-25
-0.4966319484062467	-5.300334040751813e-25
-0.4965709132499967	-5.8604948762194495e-25
-0.4965098780937467	-6.3910033050096e-25
-0.4964488429374967	-6.889297262501976e-25
-0.4963878077812467	-7.352968321428755e-25
-0.4963267726249967	-7.779776536743833e-25
-0.4962657374687467	-8.167662004887139e-25
-0.4962047023124967	-8.514750438559568e-25
-0.4961436671562467	-8.819368201095299e-25
-0.4960826319999967	-9.080046474984744e-25
-0.4960215968437467	-9.295529336900974e-25
-0.4959605616874967	-9.464780662096835e-25
-0.4958995265312467	-9.58698841402709e-25
-0.4958384913749967	-9.66156971640199e-25
-0.4957774562187467	-9.688171547146158e-25
-0.4957164210624967	-9.666675384965844e-25
-0.4956553859062467	-9.597196334271736e-25
-0.4955943507499967	-9.480081884378714e-25
-0.4955333155937467	-9.31591207479509e-25
-0.4954722804374967	-9.105496148751673e-25
-0.4954112452812467	-8.849867478309902e-25
-0.4953502101249967	-8.550280685452277e-25
-0.4952891749687467	-8.208204360764411e-25
-0.4952281398124967	-7.825313756157611e-25
-0.4951671046562467	-7.4034842931284455e-25
-0.4951060694999967	-6.944780397896003e-25
-0.4950450343437467	-6.4514478463580075e-25
-0.4949839991874967	-5.925901461276509e-25
-0.4949229640312467	-5.370712245828645e-25
-0.4948619288749967	-4.788599618580267e-25
-0.4948008937187467	-4.182413221847576e-25
-0.4947398585624967	-3.5551192475083336e-25
-0.4946788234062467	-2.90979301312547e-25
-0.4946177882499967	-2.2495948855588196e-25
-0.4945567530937467	-1.5777587972000403e-25
-0.4944957179374967	-8.975811596750367e-26
-0.4944346827812467	-2.123956473314199e-26
-0.4943736476249967	4.7443516208516866e-26
-0.4943126124687467	1.1595395716713819e-25
-0.4942515773124967	1.8395536636640346e-25
-0.4941905421562467	2.511133311607854e-25
-0.4941295069999967	3.170978805859301e-25
-0.4940684718437467	3.81584174320353e-25
-0.4940074366874967	4.442545018423775e-25
-0.4939464015312467	5.048000976072342e-25
-0.4938853663749967	5.62922081263415e-25
-0.4938243312187467	6.183334476675745e-25
-0.4937632960624967	6.707599229801126e-25
-0.4937022609062467	7.19941838222976e-25
-0.4936412257499967	7.656353067460349e-25
-0.4935801905937467	8.07612773334238e-25
-0.4935191554374967	8.45665050191601e-25
-0.4934581202812467	8.796020269713898e-25
-0.4933970851249967	9.092530955322084e-25
-0.4933360499687467	9.344686100353002e-25
-0.4932750148124967	9.551206390416843e-25
-0.4932139796562467	9.711031002774101e-25
-0.4931529444999967	9.823325730547038e-25
-0.4930919093437467	9.887489833926157e-25
-0.4930308741874967	9.903154375512392e-25
-0.4929698390312467	9.87018611382863e-25
-0.4929088038749967	9.788690202895178e-25
-0.4928477687187467	9.659006540575252e-25
-0.4927867335624967	9.481710482752293e-25
-0.4927256984062467	9.257609600334348e-25
-0.4926646632499967	8.987739482301198e-25
-0.4926036280937467	8.67335982290856e-25
-0.4925425929374967	8.31594685755021e-25
-0.4924815577812467	7.917188672362621e-25
-0.4924205226249967	7.478974631303178e-25
-0.4923594874687467	7.003387286152212e-25
-0.4922984523124967	6.49269453613539e-25
-0.4922374171562467	5.949333954399162e-25
-0.4921763819999967	5.375905474320825e-25
-0.4921153468437467	4.775157869806629e-25
-0.4920543116874967	4.149972757237865e-25
-0.4919932765312467	3.5033537439737434e-25
-0.4919322413749967	2.8384122230263735e-25
-0.4918712062187467	2.158349902818448e-25
-0.4918101710624967	1.4664413765577126e-25
-0.4917491359062467	7.660281499155892e-26
-0.4916881007499967	6.049028560527847e-27
-0.4916270655937467	-6.467663883179137e-26
-0.4915660304374967	-1.3523168633521123e-25
-0.4915049952812467	-2.0527516189117992e-25
-0.4914439601249967	-2.744677027139038e-25
-0.4913829249687467	-3.4247401048854875e-25
-0.4913218898124967	-4.089645596070171e-25
-0.4912608546562467	-4.736163133144253e-25
-0.4911998194999967	-5.361157750071334e-25
-0.4911387843437467	-5.9615899347299965e-25
-0.4910777491874967	-6.534538728707133e-25
-0.4910167140312467	-7.077218504661904e-25
-0.4909556788749967	-7.5869836893598505e-25
-0.4908946437187467	-8.061348409487274e-25
-0.4908336085624967	-8.49799815039735e-25
-0.4907725734062467	-8.894798905697124e-25
-0.4907115382499967	-9.24980754965175e-25
-0.4906505030937467	-9.561284623080666e-25
-0.4905894679374967	-9.827699238370164e-25
-0.4905284327812467	-1.0047738344220233e-24
-0.4904673976249967	-1.0220314137963012e-24
-0.4904063624687467	-1.03445666280782e-24
-0.4903453273124967	-1.0419871137464865e-24
-0.4902842921562467	-1.0445839769329308e-24
-0.4902232569999967	-1.0422322831243475e-24
-0.4901622218437467	-1.0349411629981876e-24
-0.4901011866874967	-1.0227436524495655e-24
-0.4900401515312467	-1.0056965964813196e-24
-0.4899791163749967	-9.838803922838776e-25
-0.4899180812187467	-9.573986240305743e-25
-0.4898570460624967	-9.263775096946148e-25
-0.4897960109062467	-8.909653490558669e-25
-0.4897349757499967	-8.513318818148384e-25
-0.4896739405937467	-8.076672118078516e-25
-0.4896129054374967	-7.60181252595958e-25
-0.4895518702812467	-7.091024670513995e-25
-0.4894908351249967	-6.546767116103405e-25
-0.4894297999687467	-5.971664307675116e-25
-0.4893687648124967	-5.368488496667862e-25
-0.4893077296562467	-4.740149585259936e-25
-0.4892466944999967	-4.0896826415871154e-25
-0.4891856593437467	-3.4202278593758523e-25
-0.4891246241874967	-2.7350197025969984e-25
-0.4890635890312467	-2.0373709669687917e-25
-0.4890025538749967	-1.330653959408232e-25
-0.4889415187187467	-6.182859609080996e-26
-0.4888804835624967	9.628751386307042e-27
-0.4888194484062467	8.096078342192626e-26
-0.4887584132499967	1.5182254374384427e-25
-0.4886973780937467	2.218711488345458e-25
-0.4886363429374967	2.9076736085664717e-25
-0.4885753077812467	3.5817806299570394e-25
-0.4885142726249967	4.237768442780342e-25
-0.4884532374687467	4.872462862179279e-25
-0.4883922023124967	5.482795023925252e-25
-0.4883311671562467	6.065808824821647e-25
-0.4882701319999967	6.618687288147772e-25
-0.4882090968437467	7.138758105941489e-25
-0.4881480616874967	7.623506069765582e-25
-0.4880870265312467	8.070591708414783e-25
-0.4880259913749967	8.477857558455688e-25
-0.4879649562187467	8.84334108719513e-25
-0.4879039210624967	9.165282067802348e-25
-0.4878428859062467	9.442134706298041e-25
-0.4877818507499967	9.672573303152554e-25
-0.4877208155937467	9.855496438016543e-25
-0.4876597804374967	9.990038379648591e-25
-0.4875987452812467	1.0075567669517807e-24
-0.4875377101249967	1.0111692314397506e-24
-0.4874766749687467	1.0098263823801381e-24
-0.4874156398124967	1.0035374453120791e-24
-0.4873546046562467	9.923358941349495e-25
-0.4872935694999967	9.762793271765181e-25
-0.4872325343437467	9.554490257122995e-25
-0.4871714991874967	9.29949703411553e-25
-0.4871104640312467	8.99908977874394e-25
-0.4870494288749967	8.654766709630626e-25
-0.4869883937187467	8.268241693326133e-25
-0.4869273585624967	7.841436055689659e-25
-0.4868663234062467	7.376468273536989e-25
-0.4868052882499967	6.875643672183029e-25
-0.4867442530937467	6.34144552175805e-25
-0.4866832179374967	5.7765189255760335e-25
-0.4866221827812467	5.183661460707765e-25
-0.4865611476249967	4.565808102337184e-25
-0.4865001124687467	3.9260151389354524e-25
-0.4864390773124967	3.267450398711832e-25
-0.4863780421562467	2.593370460332211e-25
-0.4863170069999967	1.9071100876674666e-25
-0.4862559718437467	1.2120669937076106e-25
-0.4861949366874967	5.1167711968283935e-26
-0.4861339015312467	-1.9059309181951037e-26
-0.4860728663749967	-8.912665218723294e-26
-0.4860118312187467	-1.5868775330796096e-25
-0.4859507960624967	-2.2739814532701986e-25
-0.4858897609062467	-2.9491754836245217e-25
-0.4858287257499967	-3.6091155703193365e-25
-0.4857676905937467	-4.250532378145884e-25
-0.4857066554374967	-4.870246467147575e-25
-0.4856456202812467	-5.465183829371139e-25
-0.4855845851249967	-6.032394687396884e-25
-0.4855235499687467	-6.569062289671055e-25
-0.4854625148124967	-7.072521069739532e-25
-0.4854014796562467	-7.54026923875002e-25
-0.4853404444999967	-7.969978461842115e-25
-0.4852794093437467	-8.359509538952602e-25
-0.4852183741874967	-8.706919707902551e-25
-0.4851573390312467	-9.010473688856373e-25
-0.4850963038749967	-9.268651714204093e-25
-0.4850352687187467	-9.48015798502827e-25
-0.4849742335624967	-9.643927159589728e-25
-0.4849131984062467	-9.759127356430427e-25
-0.4848521632499967	-9.82516794209154e-25
-0.4847911280937467	-9.841700497247527e-25
-0.4847300929374967	-9.80862019423618e-25
-0.4846690577812467	-9.726067751978105e-25
-0.4846080226249967	-9.594428558702397e-25
-0.4845469874687467	-9.414330126562397e-25
-0.4844859523124967	-9.186639707420122e-25
-0.4844249171562467	-8.9124607549606e-25
-0.4843638819999967	-8.593125871060937e-25
-0.4843028468437467	-8.230192293441824e-25
-0.4842418116874967	-7.82543331658767e-25
-0.4841807765312467	-7.3808296188768385e-25
-0.4841197413749967	-6.898559417451336e-25
-0.4840587062187467	-6.380989479113238e-25
-0.4839976710624967	-5.830661975684755e-25
-0.4839366359062467	-5.250279713964461e-25
-0.4838756007499967	-4.642701009267791e-25
-0.4838145655937467	-4.010916188355151e-25
-0.4837535304374967	-3.3580354920884133e-25
-0.4836924952812467	-2.6872819497060786e-25
-0.4836314601249967	-2.001962524798132e-25
-0.4835704249687467	-1.3054595375747776e-25
-0.4835093898124967	-6.012167386131921e-26
-0.4834483546562467	1.0728672606642822e-26
-0.4833873194999967	8.16546334976802e-26
-0.4833262843437467	1.5230494305066954e-25
-0.4832652491874967	2.22329786462497e-25
-0.4832042140312467	2.913820633827043e-25
-0.4831431788749967	3.591191238548906e-25
-0.4830821437187467	4.252046996507436e-25
-0.4830211085624967	4.893104816236042e-25
-0.4829600734062467	5.511174929120456e-25
-0.4828990382499967	6.103180134546489e-25
-0.4828380030937467	6.666171254497794e-25
-0.4827769679374967	7.197336203384114e-25
-0.4827159327812467	7.694020807600451e-25
-0.4826548976249967	8.153739206307285e-25
-0.4825938624687467	8.574184006179868e-25
-0.4825328273124967	8.953242225496235e-25
-0.4824717921562467	9.289001325628427e-25
-0.4824107569999967	9.579762079486997e-25
-0.4823497218437467	9.824046936393314e-25
-0.4822886866874967	1.0020603534410427e-24
-0.4822276515312467	1.016841639693739e-24
-0.4821666163749967	1.026670956989489e-24
-0.4821055812187467	1.0314948559258689e-24
-0.4820445460624967	1.0312847309578995e-24
-0.4819835109062467	1.0260367036198642e-24
-0.4819224757499967	1.0157716578508484e-24
-0.4818614405937467	1.0005353021401752e-24
-0.4818004054374967	9.803977985340914e-25
-0.4817393702812467	9.554535647625195e-25
-0.4816783351249967	9.258207421165488e-25
-0.4816172999687467	8.916405842461673e-25
-0.4815562648124967	8.530769839926859e-25
-0.4814952296562467	8.103154036756572e-25
-0.4814341944999967	7.63562099110544e-25
-0.4813731593437467	7.130432916869772e-25
-0.4813121241874967	6.5900363784434225e-25
-0.4812510890312467	6.017054549085658e-25
-0.4811900538749967	5.4142733235214555e-25
-0.4811290187187467	4.784624314717673e-25
-0.4810679835624967	4.1311757779746207e-25
-0.4810069484062467	3.4571145158631025e-25
-0.4809459132499967	2.765729828882943e-25
-0.4808848780937467	2.0603979027143683e-25
-0.4808238429374967	1.3445674818316584e-25
-0.4807628077812467	6.217393112527595e-26
-0.4807017726249967	-1.045505837864894e-26
-0.4806407374687467	-8.307431485524825e-26
-0.4805797023124967	-1.5532836830086828e-25
-0.4805186671562467	-2.2686293547186994e-25
-0.4804576319999967	-2.973271442029682e-25
-0.4803965968437467	-3.6637554652917216e-25
-0.4803355616874967	-4.33669059965381e-25
-0.4802745265312467	-4.988774557621029e-25
-0.4802134913749967	-5.616804318232302e-25
-0.4801524562187467	-6.217694857859919e-25
-0.4800914210624967	-6.788492345728663e-25
-0.4800303859062467	-7.326391636589611e-25
-0.4799693507499967	-7.828748408476412e-25
-0.4799083155937467	-8.293089915407503e-25
-0.4798472804374967	-8.717133846449056e-25
-0.4797862452812467	-9.098792599555473e-25
-0.4797252101249967	-9.436188196800283e-25
-0.4796641749687467	-9.727659676815907e-25
-0.4796031398124967	-9.971772013128188e-25
-0.4795421046562467	-1.0167324573269798e-24
-0.4794810694999967	-1.0313353269247173e-24
-0.4794200343437467	-1.0409140357395663e-24
-0.4793589991874967	-1.0454215089410066e-24
-0.4792979640312467	-1.0448356087944038e-24
-0.4792369288749967	-1.0391594454171116e-24
-0.4791758937187467	-1.028421166475521e-24
-0.4791148585624967	-1.0126739650006806e-24
-0.4790538234062467	-9.919957808667255e-25
-0.4789927882499967	-9.664888920406103e-25
-0.4789317530937467	-9.362795051079717e-25
-0.4788707179374967	-9.015170167072301e-25
-0.4788096827812467	-8.623734463479346e-25
-0.4787486476249967	-8.190424468633952e-25
-0.4786876124687467	-7.717383401697792e-25
-0.4786265773124967	-7.206953473390441e-25
-0.4785655421562467	-6.661660284828794e-25
-0.4785045069999967	-6.084201977615434e-25
-0.4784434718437467	-5.477438792328187e-25
-0.4783824366874967	-4.844374796857158e-25
-0.4783214015312467	-4.188143837774172e-25
-0.4782603663749967	-3.511996356770351e-25
-0.4781993312187467	-2.8192829646202206e-25
-0.4781382960624967	-2.113434406025088e-25
-0.4780772609062467	-1.397946367875203e-25
-0.4780162257499967	-6.763679061856757e-26
-0.4779551905937467	4.7726059203993325e-27
-0.4778941554374967	7.707483636455342e-26
-0.4778331202812467	1.489111453514581e-25
-0.4777720851249967	2.199254882223333e-25
-0.4777110499687467	2.897657143772533e-25
-0.4776500148124967	3.580854708419067e-25
-0.4775889796562467	4.245458856514121e-25
-0.4775279444999967	4.888171742713108e-25
-0.4774669093437467	5.505806461823643e-25
-0.4774058741874967	6.095297802645939e-25
-0.4773448390312467	6.653720608934103e-25
-0.4772838038749967	7.1783045626132715e-25
-0.4772227687187467	7.666446340516907e-25
-0.4771617335624967	8.1157236946892605e-25
-0.4771006984062467	8.523907334813264e-25
-0.4770396632499967	8.888972044739568e-25
-0.4769786280937467	9.209107023483996e-25
-0.4769175929374967	9.482724509765263e-25
-0.4768565577812467	9.708468242115764e-25
-0.4767955226249967	9.885220088072844e-25
-0.4767344874687467	1.0012105617778835e-24
-0.4766734523124967	1.0088498963880732e-24
-0.4766124171562467	1.0114025209967594e-24
-0.4765513819999967	1.0088563272207243e-24
-0.4764903468437467	1.001224608740145e-24
-0.4764293116874967	9.885460019677532e-25
-0.4763682765312467	9.708843375023635e-25
-0.4763072413749967	9.483282935245747e-25
-0.4762462062187467	9.209910068560417e-25
-0.4761851710624967	8.890094590427595e-25
-0.4761241359062467	8.525438625545483e-25
-0.4760631007499967	8.117769181761774e-25
-0.4760020655937467	7.669126414850735e-25
-0.4759410304374967	7.181757577222476e-25
-0.4758799952812467	6.658104510028235e-25
-0.4758189601249967	6.100787236829812e-25
-0.4757579249687467	5.512598731458309e-25
-0.4756968898124967	4.896486063104732e-25
-0.4756358546562467	4.255533964622383e-25
-0.4755748194999967	3.5929564236886955e-25
-0.4755137843437467	2.912074242387175e-25
-0.4754527491874967	2.2162999891355114e-25
-0.4753917140312467	1.509124402950142e-25
-0.4753306788749967	7.940946276192847e-26
-0.4752696437187467	7.479856818943887e-27
-0.4752086085624967	-6.45152722737117e-26
-0.4751475734062467	-1.3621434147911746e-25
-0.4750865382499967	-2.0725709437544515e-25
-0.4750255030937467	-2.772866159599154e-25
-0.4749644679374967	-3.459506190968656e-25
-0.4749034327812467	-4.1290356067880075e-25
-0.4748423976249967	-4.7780856561460865e-25
-0.4747813624687467	-5.403385295381431e-25
-0.4747203273124967	-6.001782455271043e-25
-0.4746592921562467	-6.570258063947845e-25
-0.4745982569999967	-7.105941493028447e-25
-0.4745372218437467	-7.606125008765618e-25
-0.4744761866874967	-8.068275307124946e-25
-0.4744151515312467	-8.49005167574817e-25
-0.4743541163749967	-8.869311985934145e-25
-0.4742930812187467	-9.204124613517997e-25
-0.4742320460624967	-9.492782996678271e-25
-0.4741710109062467	-9.733808447987903e-25
-0.4741099757499967	-9.925958708493099e-25
-0.4740489405937467	-1.006823844293989e-24
-0.4739879054374967	-1.0159899894794353e-24
-0.4739268702812467	-1.0200447326676884e-24
-0.4738658351249967	-1.018964247081393e-24
-0.4738047999687467	-1.0127502877019485e-24
-0.4737437648124967	-1.0014302991884997e-24
-0.4736827296562467	-9.850573531120754e-25
-0.4736216944999967	-9.63709830646969e-25
-0.4735606593437467	-9.374910005925347e-25
-0.4734996241874967	-9.065286746508046e-25
-0.4734385890312467	-8.709744044913372e-25
-0.4733775538749967	-8.310028147815472e-25
-0.4733165187187467	-7.868108530057109e-25
-0.4732554835624967	-7.386165123486482e-25
-0.4731944484062467	-6.866581372181383e-25
-0.4731334132499967	-6.311930000480762e-25
-0.4730723780937467	-5.724959446825216e-25
-0.4730113429374967	-5.108584035724015e-25
-0.4729503077812467	-4.465864902847911e-25
-0.4728892726249967	-3.7999976819974783e-25
-0.4728282374687467	-3.1142963606190573e-25
-0.4727672023124967	-2.4121750494070913e-25
-0.4727061671562467	-1.6971332705449612e-25
-0.4726451319999967	-9.72736195501276e-26
-0.4725840968437467	-2.425990011571693e-26
-0.4725230616874967	4.89632752925426e-26
-0.4724620265312467	1.2203005591960563e-25
-0.4724009913749967	1.945751714017874e-25
-0.4723399562187467	2.6623572131373533e-25
-0.4722789210624967	3.366530389373519e-25
-0.4722178859062467	4.0547442593878736e-25
-0.4721568507499967	4.723549421003793e-25
-0.4720958155937467	5.369592619024157e-25
-0.4720347804374967	5.989630283054902e-25
-0.4719737452812467	6.58055024872522e-25
-0.4719127101249967	7.139380976442427e-25
-0.4718516749687467	7.663310649331913e-25
-0.4717906398124967	8.14970309920123e-25
-0.4717296046562467	8.596103792320026e-25
-0.4716685694999967	9.000260160570095e-25
-0.4716075343437467	9.360129300281277e-25
-0.4715464991874967	9.673887537460544e-25
-0.4714854640312467	9.939941632345334e-25
