Time	Frequency
-0.5000265492499949	0.05012460313657224
-0.4999655140937449	0.07341324420041465
-0.4999044789374949	0.09643722471752915
-0.4998434437812449	0.1191170195822647
-0.4997824086249949	0.14137423959294468
-0.4997213734687449	0.16313193149905345
-0.4996603383124949	0.1843149041963803
-0.4995993031562449	0.2048499385207938
-0.4995382679999949	0.22466604219916927
-0.4994772328437449	0.2436947431673161
-0.4994161976874949	0.26187027081611575
-0.4993551625312449	0.27912982541264136
-0.4992941273749949	0.2954138147142833
-0.4992330922187449	0.31066597364245685
-0.4991720570624949	0.324833685754055
-0.4991110219062449	0.3378680908317591
-0.4990499867499949	0.3497242291119231
-0.4989889515937449	0.3603613143947422
-0.4989279164374949	0.36974275473465595
-0.4988668812812449	0.37783633651678017
-0.4988058461249949	0.3846143751678526
-0.4987448109687449	0.3900537176597925
-0.4986837758124949	0.3941359166203745
-0.4986227406562449	0.39684726434104683
-0.4985617054999949	0.39817880231412456
-0.4985006703437449	0.3981264296543996
-0.4984396351874949	0.3966908602959729
-0.4983786000312449	0.39387763432284073
-0.4983175648749949	0.3896971252770427
-0.4982565297187449	0.3841644749575129
-0.4981954945624949	0.37729955477935406
-0.4981344594062449	0.36912689777778357
-0.4980734242499949	0.3596756228443037
-0.4980123890937449	0.348979307667885
-0.4979513539374949	0.3370759045594271
-0.4978903187812449	0.32400758866659063
-0.4978292836249949	0.3098206178266584
-0.4977682484687449	0.29456517792699666
-0.4977072133124949	0.27829517881299815
-0.4976461781562449	0.2610681273437012
-0.4975851429999949	0.2429448579014661
-0.4975241078437449	0.22398935901373368
-0.4974630726874949	0.20426856056886114
-0.4974020375312449	0.1838520669129519
-0.4973410023749949	0.16281191569478418
-0.4972799672187449	0.1412223586104339
-0.4972189320624949	0.11915961242071754
-0.4971578969062449	0.09670148638997403
-0.4970968617499949	0.07392724391059129
-0.4970358265937449	0.05091727248409926
-0.4969747914374949	0.02775274704939133
-0.4969137562812449	0.004515441681488835
-0.4968527211249949	-0.018712628513564138
-0.4967916859687449	-0.04184946480256284
-0.4967306508124949	-0.06481336585905147
-0.4966696156562449	-0.08752327454550525
-0.4966085804999949	-0.10989893856922239
-0.4965475453437449	-0.13186132936035339
-0.4964865101874949	-0.15333289883410678
-0.4964254750312449	-0.17423766990314263
-0.4963644398749949	-0.19450180639243403
-0.4963034047187449	-0.21405366864635192
-0.4962423695624949	-0.23282403200650353
-0.4961813344062449	-0.25074652547580195
-0.4961202992499949	-0.2677577109152799
-0.4960592640937449	-0.28379734049954786
-0.4959982289374949	-0.29880856399693795
-0.4959371937812449	-0.3127382012989523
-0.4958761586249949	-0.325536846060383
-0.4958151234687449	-0.3371590305383132
-0.4957540883124949	-0.34756350572845796
-0.4956930531562449	-0.35671326394544656
-0.4956320179999949	-0.3645757050623708
-0.4955709828437449	-0.3711228009023301
-0.4955099476874949	-0.3763311451684382
-0.4954489125312449	-0.38018204564274133
-0.4953878773749949	-0.3826616084271796
-0.4953268422187449	-0.38376078019584886
-0.4952658070624949	-0.38347537886805816
-0.4952047719062449	-0.3818061184731349
-0.4951437367499949	-0.37875859753917906
-0.4950827015937449	-0.37434329843257436
-0.4950216664374949	-0.3685755354253331
-0.4949606312812449	-0.36147541016483387
-0.4948995961249949	-0.3530677528423116
-0.4948385609687449	-0.34338201517639894
-0.4947775258124949	-0.33245218797422843
-0.4947164906562449	-0.3203166796112723
-0.4946554554999949	-0.3070181768459207
-0.4945944203437449	-0.2926034957782526
-0.4945333851874949	-0.27712342705138
-0.4944723500312449	-0.2606325564051623
-0.4944113148749949	-0.24318907069892887
-0.4943502797187449	-0.2248545527190357
-0.4942892445624949	-0.20569376723729388
-0.4942282094062449	-0.18577445659880146
-0.4941671742499949	-0.16516704194165177
-0.4941061390937449	-0.14394446203705574
-0.4940451039374949	-0.12218185760997011
-0.4939840687812449	-0.09995627364339454
-0.4939230336249949	-0.07734653516703269
-0.4938619984687449	-0.0544327905143646
-0.4938009633124949	-0.031296313369511
-0.4937399281562449	-0.008019284010985134
-0.4936788929999949	0.015315652442611061
-0.4936178578437449	0.03862555770145135
-0.4935568226874949	0.06182750751570169
-0.4934957875312449	0.08483897586004525
-0.4934347523749949	0.1075779834893978
-0.4933737172187449	0.12996350063355977
-0.4933126820624949	0.15191572612603027
-0.4932516469062449	0.17335623895270125
-0.4931906117499949	0.1942084929759905
-0.4931295765937449	0.21439792369650565
-0.4930685414374949	0.23385220210480515
-0.4930075062812449	0.2525016713861258
-0.4929464711249949	0.270279364640028
-0.4928854359687449	0.28712138424145633
-0.4928244008124949	0.3029671668708689
-0.4927633656562449	0.3177595004286471
-0.4927023304999949	0.33144494855137524
-0.4926412953437449	0.34397395013163623
-0.4925802601874949	0.3553009387401561
-0.4925192250312449	0.36538461110036696
-0.4924581898749949	0.374188017578595
-0.4923971547187449	0.3816787130424182
-0.4923361195624949	0.3878288351626502
-0.4922750844062449	0.39261528090642195
-0.4922140492499949	0.39601973565963894
-0.4921530140937449	0.3980287214815031
-0.4920919789374949	0.39863372999106306
-0.4920309437812449	0.39783117749122465
-0.4919699086249949	0.39562244455149376
-0.4919088734687449	0.3920138970457396
-0.4918478383124949	0.3870168359891176
-0.4917868031562449	0.3806474757546458
-0.4917257679999949	0.3729268928848912
-0.4916647328437449	0.36388093606707894
-0.4916036976874949	0.35354017004852284
-0.4915426625312449	0.3419397393959229
-0.4914816273749949	0.3291192512837636
-0.4914205922187449	0.3151226809300399
-0.4913595570624949	0.29999813845192264
-0.4912985219062449	0.2837977881803362
-0.4912374867499949	0.26657760792728896
-0.4911764515937449	0.2483972002901016
-0.4911154164374949	0.22931964502373223
-0.4910543812812449	0.20941116078716784
-0.4909933461249949	0.18874099603231015
-0.4909323109687449	0.16738114072687002
-0.4908712758124949	0.14540599380811772
-0.4908102406562449	0.12289224357066603
-0.4907492054999949	0.09991854664490432
-0.4906881703437449	0.07656512814403847
-0.4906271351874949	0.05291370038442849
-0.4905661000312449	0.029047083883326635
-0.4905050648749949	0.005048811047313215
-0.4904440297187449	-0.018996959988536538
-0.4903829945624949	-0.043005877283375585
-0.4903219594062449	-0.06689373844321338
-0.4902609242499949	-0.09057661758925156
-0.4901998890937449	-0.11397129477301012
-0.4901388539374949	-0.13699557387551936
-0.4900778187812449	-0.15956841746166153
-0.4900167836249949	-0.18161040096095346
-0.4899557484687449	-0.20304392011964373
-0.4898947133124949	-0.22379343743877894
-0.4898336781562449	-0.24378580833330765
-0.4897726429999949	-0.2629505217783647
-0.4897116078437449	-0.28121994978157994
-0.4896505726874949	-0.2985295331081777
-0.4895895375312449	-0.31481814867540087
-0.4895285023749949	-0.33002818051805727
-0.4894674672187449	-0.34410577497015504
-0.4894064320624949	-0.3570011166536947
-0.4893453969062449	-0.36866845599560694
-0.4892843617499949	-0.3790663883559092
-0.4892233265937449	-0.388157979715062
-0.4891622914374949	-0.39591084387384173
-0.4891012562812449	-0.40229733287240244
-0.4890402211249949	-0.4072946077595202
-0.4889791859687449	-0.41088469202229705
-0.4889181508124949	-0.41305458700994796
-0.4888571156562449	-0.4137962980684423
-0.4887960804999949	-0.4131068524907355
-0.4887350453437449	-0.41098833345787944
-0.4886740101874949	-0.40744786880728034
-0.4886129750312449	-0.40249760216648495
-0.4885519398749949	-0.3961546558071255
-0.4884909047187449	-0.3884410766303356
-0.4884298695624949	-0.37938375297630417
-0.4883688344062449	-0.36901433075390777
-0.4883077992499949	-0.35736908690385016
-0.4882467640937449	-0.3444888298030733
-0.4881857289374949	-0.3304187331421054
-0.4881246937812449	-0.3152081699339542
-0.4880636586249949	-0.2989105950936549
-0.4880026234687449	-0.28158327762632823
-0.4879415883124949	-0.26328714764621
-0.4878805531562449	-0.24408661243708615
-0.4878195179999949	-0.22404922716250394
-0.4877584828437449	-0.20324556001796285
-0.4876974476874949	-0.18174893476496298
-0.4876364125312449	-0.15963505081058116
-0.4875753773749949	-0.13698187638172438
-0.4875143422187449	-0.11386932619507532
-0.4874533070624949	-0.09037885134959599
-0.4873922719062449	-0.06659335171969674
-0.4873312367499949	-0.04259675727947171
-0.4872702015937449	-0.018473733823991114
-0.4872091664374949	0.005690560443259893
-0.4871481312812449	0.029810840033694212
-0.4870870961249949	0.0538019089272323
-0.4870260609687449	0.0775790936477526
-0.4869650258124949	0.10105841841214713
-0.4869039906562449	0.1241569429167147
-0.4868429554999949	0.1467931208214517
-0.4867819203437449	0.1688869801810393
-0.4867208851874949	0.19036050701191298
-0.4866598500312449	0.2111378581639279
-0.4865988148749949	0.231145665760647
-0.4865377797187449	0.25031328472675746
-0.4864767445624949	0.2685730263993589
-0.4864157094062449	0.28586048787215645
-0.4863546742499949	0.30211463424897356
-0.4862936390937449	0.3172781347138039
-0.4862326039374949	0.331297570412289
-0.4861715687812449	0.3441235102176444
-0.4861105336249949	0.3557108295160971
-0.4860494984687449	0.3660187810779677
-0.4859884633124949	0.37501116590774053
-0.4859274281562449	0.38265648582281914
-0.4858663929999949	0.38892801084288364
-0.4858053578437449	0.39380392845149087
-0.4857443226874949	0.3972673837574725
-0.4856832875312449	0.39930655535695564
-0.4856222523749949	0.39991470724629224
-0.4855612172187449	0.39909019410209773
-0.4855001820624949	0.3968364938437471
-0.4854391469062449	0.39316217653312185
-0.4853781117499949	0.38808088052823775
-0.4853170765937449	0.38161127984885646
-0.4852560414374949	0.3737769956233368
-0.4851950062812449	0.36460653007798105
-0.4851339711249949	0.3541331642432982
-0.4850729359687449	0.3423948348130136
-0.4850119008124949	0.3294340112705563
-0.4849508656562449	0.3152975253285875
-0.4848898304999949	0.3000364283593832
-0.4848287953437449	0.2837058149241912
-0.4847677601874949	0.2663645657073626
-0.4847067250312449	0.24807525118951118
-0.4846456898749949	0.22890380181945064
-0.4845846547187449	0.20891929909959672
-0.4845236195624949	0.18819381943788074
-0.4844625844062449	0.16680202160774227
-0.4844015492499949	0.14482102456779075
-0.4843405140937449	0.12233003101364445
-0.4842794789374949	0.09941010862208818
-0.4842184437812449	0.07614390704543786
-0.4841574086249949	0.052615240987012854
-0.4840963734687449	0.02890897709432781
-0.4840353383124949	0.005110627220879785
-0.4839743031562449	-0.018694016897987085
-0.4839132679999949	-0.04241906175875374
-0.4838522328437449	-0.06597885910569036
-0.4837911976874949	-0.08928840398270366
-0.4837301625312449	-0.1122635272998298
-0.4836691273749949	-0.1348212130526585
-0.4836080922187449	-0.15687997577287338
-0.4835470570624949	-0.1783600703041736
-0.4834860219062449	-0.1991837776579242
-0.4834249867499949	-0.21927578640261047
-0.4833639515937449	-0.2385633405500907
-0.4833029164374949	-0.25697652462967335
-0.4832418812812449	-0.2744486195927514
-0.4831808461249949	-0.29091622798160705
-0.4831198109687449	-0.30631950676905495
-0.4830587758124949	-0.32060245836464285
-0.4829977406562449	-0.33371313081444715
-0.4829367054999949	-0.3456036704112687
-0.4828756703437449	-0.3562306590520383
-0.4828146351874949	-0.3655552326032909
-0.4827536000312449	-0.3735431086439909
-0.4826925648749949	-0.38016487614697053
-0.4826315297187449	-0.3853960117311638
-0.4825704945624949	-0.3892169517824921
-0.4825094594062449	-0.391613231493207
-0.4824484242499949	-0.39257551024978316
-0.4823873890937449	-0.3920995757824269
-0.4823263539374949	-0.390186411256641
-0.4822653187812449	-0.3868421816811711
-0.4822042836249949	-0.38207817937678573
-0.4821432484687449	-0.37591083985018614
-0.4820822133124949	-0.3683616472568668
-0.4820211781562449	-0.3594570734062247
-0.4819601429999949	-0.34922848585556593
-0.4818991078437449	-0.3377120290848231
-0.4818380726874949	-0.32494853337727936
-0.4817770375312449	-0.3109832888556711
-0.4817160023749949	-0.2958659873359478
-0.4816549672187449	-0.2796504919219155
-0.4815939320624949	-0.2623946049896954
-0.4815328969062449	-0.24415998233222555
-0.4814718617499949	-0.2250117802024124
-0.4814108265937449	-0.20501850259606794
-0.4813497914374949	-0.18425176368138943
-0.4812887562812449	-0.16278597040241763
-0.4812277211249949	-0.14069810955700696
-0.4811666859687449	-0.11806745676579562
-0.4811056508124949	-0.09497530326460053
-0.4810446156562449	-0.0715046216584645
-0.4809835804999949	-0.047739834696395034
-0.4809225453437449	-0.023766484860768336
-0.4808615101874949	0.00032912781794594656
-0.4808004750312449	0.02446014695213766
-0.4807394398749949	0.048539560344106725
-0.4806784047187449	0.07248048969846566
-0.4806173695624949	0.0961964722378579
-0.4805563344062449	0.11960179796671738
-0.4804952992499949	0.14261183625863347
-0.4804342640937449	0.16514332744008883
-0.4803732289374949	0.18711458886399165
-0.4803121937812449	0.2084460398297647
-0.4802511586249949	0.22906024414338494
-0.4801901234687449	0.24888226355055484
-0.4801290883124949	0.26784010755879883
-0.4800680531562449	0.2858646588060645
-0.4800070179999949	0.30289022388149905
-0.4799459828437449	0.318854654354357
-0.4798849476874949	0.33369947983038123
-0.4798239125312449	0.34737033582696825
-0.4797628773749949	0.35981697337498575
-0.4797018422187449	0.37099348914966
-0.4796408070624949	0.38085857285150504
-0.4795797719062449	0.3893755662059746
-0.4795187367499949	0.39651263067019576
-0.4794577015937449	0.4022428709549673
-0.4793966664374949	0.40654442552781256
-0.4793356312812449	0.4094005713462081
-0.4792745961249949	0.41079972904034745
-0.4792135609687449	0.41073557902678853
-0.4791525258124949	0.40920706054991
-0.4790914906562449	0.4062183374486449
-0.4790304554999949	0.40177885529644897
-0.4789694203437449	0.3959032721382372
-0.4789083851874949	0.38861140160661384
-0.4788473500312449	0.379928172807256
-0.4787863148749949	0.36988352259063517
-0.4787252797187449	0.35851230016089736
-0.4786642445624949	0.3458541433749899
-0.4786032094062449	0.33195332594389027
-0.4785421742499949	0.31685864096721716
-0.4784811390937449	0.3006231743109391
-0.4784201039374949	0.2833041350689091
-0.4783590687812449	0.26496270512534065
-0.4782980336249949	0.24566372873379105
-0.4782369984687449	0.2254755372758325
-0.4781759633124949	0.20446972703948071
-0.4781149281562449	0.18272082753229044
-0.4780538929999949	0.16030613090230067
-0.4779928578437449	0.13730530478277705
-0.4779318226874949	0.1138002166975508
-0.4778707875312449	0.08987460494654191
-0.4778097523749949	0.06561365616131949
-0.4777487172187449	0.04110397474957917
-0.4776876820624949	0.016432974562717424
-0.4776266469062449	-0.008311296014455363
-0.4775656117499949	-0.03304037526658532
-0.4775045765937449	-0.05766593510194897
-0.4774435414374949	-0.08209990369706817
-0.4773825062812449	-0.10625487143565937
-0.4773214711249949	-0.1300443964657719
-0.4772604359687449	-0.15338328348905858
-0.4771994008124949	-0.1761879510844998
-0.4771383656562449	-0.19837668560582944
-0.4770773304999949	-0.21986991404489636
-0.4770162953437449	-0.24059058836761227
-0.4769552601874949	-0.26046438506087216
-0.4768942250312449	-0.27941993702772183
-0.4768331898749949	-0.2973892169713631
-0.4767721547187449	-0.3143077121925287
-0.4767111195624949	-0.3301146190625207
-0.4766500844062449	-0.34475311587697477
-0.4765890492499949	-0.3581705918643591
-0.4765280140937449	-0.37031880743507456
-0.4764669789374949	-0.38115401620201356
-0.4764059437812449	-0.39063721973015625
-0.4763449086249949	-0.3987343126823352
-0.4762838734687449	-0.40541606530295876
-0.4762228383124949	-0.41065840015971994
-0.4761618031562449	-0.4144424239030697
-0.4761007679999949	-0.4167544250114318
-0.4760397328437449	-0.41758604277991884
-0.4759786976874949	-0.4169342187719866
-0.4759176625312449	-0.4148012419230622
-0.4758566273749949	-0.4111947342082527
-0.4757955922187449	-0.40612763008702446
-0.4757345570624949	-0.3996181321694795
-0.4756735219062449	-0.39168963334748524
-0.4756124867499949	-0.38237067150863374
-0.4755514515937449	-0.37169477215825225
-0.4754904164374949	-0.3597003859454636
-0.4754293812812449	-0.3464307223303437
-0.4753683461249949	-0.3319335817338297
-0.4753073109687449	-0.31626124122667876
-0.4752462758124949	-0.2994701800351591
-0.4751852406562449	-0.2816209720246274
-0.4751242054999949	-0.26277800833911796
-0.4750631703437449	-0.24300924094693988
-0.4750021351874949	-0.22238606461533933
-0.4749411000312449	-0.2009828901097181
-0.4748800648749949	-0.1788769803707856
-0.4748190297187449	-0.15614820654954048
-0.4747579945624949	-0.13287862644294232
-0.4746969594062449	-0.10915231613596779
-0.4746359242499949	-0.08505499384985878
-0.4745748890937449	-0.060673755204127953
-0.4745138539374949	-0.03609673374225296
-0.4744528187812449	-0.011412738162438445
-0.4743917836249949	0.013288930467410273
-0.4743307484687449	0.03791898236991162
-0.4742697133124949	0.06238833639759562
-0.4742086781562449	0.08660844177112693
-0.4741476429999949	0.11049172493288467
-0.4740866078437449	0.1339517428342743
-0.4740255726874949	0.15690360002155251
-0.4739645375312449	0.1792642375908607
-0.4739035023749949	0.20095272722462879
-0.4738424672187449	0.22189055013146314
-0.4737814320624949	0.24200190440134037
-0.4737203969062449	0.26121401657923327
-0.4736593617499949	0.2794572747384371
-0.4735983265937449	0.2966656638888411
-0.4735372914374949	0.3127768955277338
-0.4734762562812449	0.3277325850566688
-0.4734152211249949	0.3414786464443308
-0.4733541859687449	0.35396530922848246
-0.4732931508124949	0.3651473765893256
-0.4732321156562449	0.3749844117635833
-0.4731710804999949	0.38344084100207715
-0.4731100453437449	0.3904861186942167
-0.4730490101874949	0.3960948096412959
-0.4729879750312449	0.4002467232579397
-0.4729269398749949	0.4029269420095537
-0.4728659047187449	0.40412591826973626
-0.4728048695624949	0.40383949604430175
-0.4727438344062449	0.40206890873726386
-0.4726827992499949	0.3988208191381505
-0.4726217640937449	0.3941072538419127
-0.4725607289374949	0.38794559015055463
-0.4724996937812449	0.38035849048713066
-0.4724386586249949	0.37137379724615344
-0.4723776234687449	0.36102448462799175
-0.4723165883124949	0.34934848163885196
-0.4722555531562449	0.33638857271239897
-0.4721945179999949	0.32219225480103053
-0.4721334828437449	0.3068115108447816
-0.4720724476874949	0.29030268329416614
-0.4720114125312449	0.2727262516835124
-0.4719503773749949	0.25414657973584054
-0.4718893422187449	0.23463173222748443
-0.4718283070624949	0.21425322353691678
-0.4717672719062449	0.19308568472117993
-0.4717062367499949	0.1712067134030372
-0.4716452015937449	0.14869649648781172
-0.4715841664374949	0.12563755414843808
-0.4715231312812449	0.10211445675820059
-0.4714620961249949	0.07821344189908748
-0.4714010609687449	0.05402225297675903
-0.4713400258124949	0.029629621569887188
-0.4712789906562449	0.005125101868392852
-0.4712179554999949	-0.019401298595128007
-0.4711569203437449	-0.043859522260896476
-0.4710958851874949	-0.06815964097111825
-0.4710348500312449	-0.09221236849089584
-0.4709738148749949	-0.1159292152764293
-0.4709127797187449	-0.1392228985280187
-0.4708517445624949	-0.16200769428262876
-0.4707907094062449	-0.18419964644910308
-0.4707296742499949	-0.2057169807487249
-0.4706686390937449	-0.22648031770870633
-0.4706076039374949	-0.2464130397512995
-0.4705465687812449	-0.26544152848198443
-0.4704855336249949	-0.28349540092671915
-0.4704244984687449	-0.3005078789072659
-0.4703634633124949	-0.3164159231738506
-0.4703024281562449	-0.3311604976963166
-0.4702413929999949	-0.3446868480956173
-0.4701803578437449	-0.3569446092479137
-0.4701193226874949	-0.36788804484062815
-0.4700582875312449	-0.37747623912005207
-0.4699972523749949	-0.3856731842146151
-0.4699362172187449	-0.3924479600007173
-0.4698751820624949	-0.39777485054812484
-0.4698141469062449	-0.40163341368813127
-0.4697531117499949	-0.40400858670403117
-0.4696920765937449	-0.4048907277759717
