Time	Frequency
-0.5000065049062528	-0.40131326256162
-0.49994546975000276	-0.4083131340908093
-0.49988443459375276	-0.4137499879073741
-0.49982339943750276	-0.41760303500190166
-0.49976236428125276	-0.41985766219733117
-0.49970132912500276	-0.42050542113419354
-0.49964029396875276	-0.4195440807721814
-0.49957925881250276	-0.41697766264402447
-0.49951822365625276	-0.41281639219916777
-0.49945718850000276	-0.4070766889194315
-0.49939615334375276	-0.39978108183769273
-0.49933511818750276	-0.3909581534995249
-0.49927408303125276	-0.3806423874744116
-0.49921304787500276	-0.36887409385253306
-0.49915201271875276	-0.3556992013649597
-0.49909097756250276	-0.34116909208959373
-0.49902994240625276	-0.32534047034835034
-0.49896890725000276	-0.3082750035062853
-0.49890787209375276	-0.29003922913159547
-0.49884683693750276	-0.27070424595356596
-0.49878580178125276	-0.2503453569363656
-0.49872476662500276	-0.22904193619670066
-0.49866373146875276	-0.20687698844933777
-0.49860269631250276	-0.18393686580103225
-0.49854166115625276	-0.16031098875500024
-0.49848062600000276	-0.13609140162084096
-0.49841959084375276	-0.11137250771327781
-0.49835855568750276	-0.08625061674004954
-0.49829752053125276	-0.06082364597848284
-0.49823648537500276	-0.03519072762221045
-0.49817545021875276	-0.009451713697160491
-0.49811441506250276	0.01629300207021444
-0.49805337990625276	0.041943091595597955
-0.49799234475000276	0.06739857082512767
-0.49793130959375276	0.09256011755447602
-0.49787027443750276	0.11732973034377188
-0.49780923928125276	0.14161076468129094
-0.49774820412500276	0.16530849147051616
-0.49768716896875276	0.18833059598216328
-0.49762613381250276	0.21058721996082833
-0.49756509865625276	0.2319915649603135
-0.49750406350000276	0.25246018474460935
-0.49744302834375276	0.27191320362364346
-0.49738199318750276	0.29027478080009494
-0.49732095803125276	0.3074732945709018
-0.49725992287500276	0.32344165808190706
-0.49719888771875276	0.33811763087569513
-0.49713785256250276	0.3514439757800571
-0.49707681740625276	0.3633687511935805
-0.49701578225000276	0.37384549928895755
-0.49695474709375276	0.3828334061343301
-0.49689371193750276	0.3902975015786653
-0.49683267678125276	0.39620877045101743
-0.49677164162500276	0.400544275807682
-0.49671060646875276	0.40328724444829783
-0.49664957131250276	0.4044271601027794
-0.49658853615625276	0.4039597765375867
-0.49652750100000276	0.40188713887583694
-0.49646646584375276	0.3982176141335135
-0.49640543068750276	0.39296580944162895
-0.49634439553125276	0.3861525510911159
-0.49628336037500276	0.3778048099936693
-0.49622232521875276	0.367955556222014
-0.49616129006250276	0.35664368708009264
-0.49610025490625276	0.3439138522706381
-0.49603921975000276	0.3298162522261469
-0.49597818459375276	0.3144064994178342
-0.49591714943750276	0.29774537902891174
-0.49585611428125276	0.2798985819574799
-0.49579507912500276	0.2609364880860025
-0.49573404396875276	0.24093391571166708
-0.49567300881250276	0.2199697375435114
-0.49561197365625276	0.1981266613555229
-0.49555093850000276	0.17549090677214502
-0.49548990334375276	0.15215177673339952
-0.49542886818750276	0.12820142710345495
-0.49536783303125276	0.10373442134592055
-0.49530679787500276	0.07884739156841736
-0.49524576271875276	0.05363869665163136
-0.49518472756250276	0.028207938017212737
-0.49512369240625276	0.0026556824748873746
-0.49506265725000276	-0.022916999655599936
-0.49500162209375276	-0.04840892076420323
-0.49494058693750276	-0.0737191455116546
-0.49487955178125276	-0.09874744927165605
-0.49481851662500276	-0.12339459428818013
-0.49475748146875276	-0.14756289808884288
-0.49469644631250276	-0.17115643754484988
-0.49463541115625276	-0.19408148051573176
-0.49457437600000276	-0.21624701764474535
-0.49451334084375276	-0.23756482081957095
-0.49445230568750276	-0.25795001869453926
-0.49439127053125276	-0.2773214102909414
-0.49433023537500276	-0.29560167321574965
-0.49426920021875276	-0.3127177493493707
-0.49420816506250276	-0.3286011581025605
-0.49414712990625276	-0.34318819525446975
-0.49408609475000276	-0.3564202274625976
-0.49402505959375276	-0.36824396189612757
-0.49396402443750276	-0.3786115320044212
-0.49390298928125276	-0.38748086480970273
-0.49384195412500276	-0.39481572197976306
-0.49378091896875276	-0.40058583776540246
-0.49371988381250276	-0.4047671730609433
-0.49365884865625276	-0.40734186544121254
-0.49359781350000276	-0.4082983675576425
-0.49353677834375276	-0.4076315218679512
-0.49347574318750276	-0.40534253403064147
-0.49341470803125276	-0.4014389964299197
-0.49335367287500276	-0.3959348639009641
-0.49329263771875276	-0.3888503981671562
-0.49323160256250276	-0.3802120883869801
-0.49317056740625276	-0.3700525617887551
-0.49310953225000276	-0.358410444950058
-0.49304849709375276	-0.3453302262523731
-0.49298746193750276	-0.33086209422865387
-0.49292642678125276	-0.31506169999035555
-0.49286539162500276	-0.2979900135807534
-0.49280435646875276	-0.27971301807139853
-0.49274332131250276	-0.26030148611433596
-0.49268228615625276	-0.23983073962667686
-0.49262125100000276	-0.21838024088542554
-0.49256021584375276	-0.196033447216287
-0.49249918068750276	-0.17287735951148459
-0.49243814553125276	-0.14900218384740035
-0.49237711037500276	-0.12450111587892305
-0.49231607521875276	-0.09946978288208494
-0.49225504006250276	-0.0740059943890543
-0.49219400490625276	-0.04820938543369886
-0.49213296975000276	-0.022180861781474645
-0.49207193459375276	0.0039775851121194
-0.49201089943750276	0.030163403700049354
-0.49194986428125276	0.05627396253495129
-0.49188882912500276	0.08220666038738046
-0.49182779396875276	0.10785968419862002
-0.49176675881250276	0.13313223217384001
-0.49170572365625276	0.15792477717470677
-0.49164468850000276	0.18213982030589015
-0.49158365334375276	0.2056819152603756
-0.49152261818750276	0.22845820363774924
-0.49146158303125276	0.25037884985033226
-0.49140054787500276	0.27135722498106596
-0.49133951271875276	0.2913104039361025
-0.49127847756250276	0.3101593841028176
-0.49121744240625276	0.32782947885612906
-0.49115640725000276	0.3442505541191671
-0.49109537209375276	0.35935732890561994
-0.49103433693750276	0.37308968430416556
-0.49097330178125276	0.38539276985784354
-0.49091226662500276	0.39621738992378225
-0.49085123146875276	0.4055200945566877
-0.49079019631250276	0.4132633297266266
-0.49072916115625276	0.4194157104843771
-0.49066812600000276	0.423952030766902
-0.49060709084375276	0.42685340534986654
-0.49054605568750276	0.42810737705846924
-0.49048502053125276	0.4277079291799408
-0.49042398537500276	0.42565552302552645
-0.49036295021875276	0.42195711368251937
-0.49030191506250276	0.4166261137703007
-0.49024087990625276	0.40968234676709825
-0.49017984475000276	0.40115197144880055
-0.49011880959375276	0.3910673873637437
-0.49005777443750276	0.3794671080697559
-0.48999673928125276	0.3663956073122596
-0.48993570412500276	0.3519031604757274
-0.48987466896875276	0.33604563023319034
-0.48981363381250276	0.3188842760851554
-0.48975259865625276	0.30048549331071317
-0.48969156350000276	0.280920553284913
-0.48963052834375276	0.260265350795315
-0.48956949318750276	0.23860009153218076
-0.48950845803125276	0.21600896533841282
-0.48944742287500276	0.19257982912785487
-0.48938638771875276	0.1684038905866155
-0.48932535256250276	0.1435752918977748
-0.48926431740625276	0.11819079121301876
-0.48920328225000276	0.09234935504413685
-0.48914224709375276	0.06615178492672555
-0.48908121193750276	0.03970033449087942
-0.48902017678125276	0.013098232835318352
-0.48895914162500276	-0.013550605619298151
-0.48889810646875276	-0.040142073572426044
-0.48883707131250276	-0.06657226964831194
-0.48877603615625276	-0.09273787244538387
-0.48871500100000276	-0.1185365998300968
-0.48865396584375276	-0.14386755681107263
-0.48859293068750276	-0.1686316689218094
-0.48853189553125276	-0.1927320766549724
-0.48847086037500276	-0.21607448932132498
-0.48840982521875276	-0.23856757326606345
-0.48834879006250276	-0.2601233586310931
-0.48828775490625276	-0.2806574890868686
-0.48822671975000276	-0.30008960720626954
-0.48816568459375276	-0.31834376540981124
-0.48810464943750276	-0.3353485263959611
-0.48804361428125276	-0.35103739657244926
-0.48798257912500276	-0.3653491269665297
-0.48792154396875276	-0.37822775853325324
-0.48786050881250276	-0.3896230489694151
-0.48779947365625276	-0.3994905923194303
-0.48773843850000276	-0.4077919537124086
-0.48767740334375276	-0.4144949108292097
-0.48761636818750276	-0.4195735075664461
-0.48755533303125276	-0.4230082148236623
-0.48749429787500276	-0.4247859739391048
-0.48743326271875276	-0.424900258017545
-0.48737222756250276	-0.4233511137906125
-0.48731119240625276	-0.4201451529173323
-0.48725015725000276	-0.415295524419903
-0.48718912209375276	-0.4088218715791541
-0.48712808693750276	-0.40075025952023835
-0.48706705178125276	-0.3911130649587672
-0.48700601662500276	-0.37994885611441054
-0.48694498146875276	-0.3673022343690393
-0.48688394631250276	-0.35322369119889757
-0.48682291115625276	-0.33776934687037835
-0.48676187600000276	-0.3210007906819705
-0.48670084084375276	-0.3029848466822957
-0.48663980568750276	-0.28379319855235996
-0.48657877053125276	-0.2635022801529322
-0.48651773537500276	-0.24219284935556376
-0.48645670021875276	-0.2199496459593038
-0.48639566506250276	-0.1968612441723988
-0.48633462990625276	-0.1730194599250677
-0.48627359475000276	-0.14851911975755114
-0.48621255959375276	-0.12345774815530489
-0.48615152443750276	-0.09793500159562206
-0.48609048928125276	-0.07205241846195942
-0.48602945412500276	-0.04591300666035693
-0.48596841896875276	-0.019620729925724254
-0.48590738381250276	0.006719793889920475
-0.48584634865625276	0.03300370267945329
-0.48578531350000276	0.05912645253982891
-0.48572427834375276	0.08498405249451604
-0.48566324318750276	0.11047353097597937
-0.48560220803125276	0.13549350540133193
-0.48554117287500276	0.15994429737711716
-0.48548013771875276	0.18372849729100385
-0.48541910256250276	0.20675150013703822
-0.48535806740625276	0.22892151239972425
-0.48529703225000276	0.2501501921569124
-0.48523599709375276	0.2703530480518376
-0.48517496193750276	0.28944947204846877
-0.48511392678125276	0.30736337101688443
-0.48505289162500276	0.32402335363939755
-0.48499185646875276	0.3393629415379143
-0.48493082131250276	0.353320973008091
-0.48486978615625276	0.36584173851113044
-0.48480875100000276	0.37687529046633017
-0.48474771584375276	0.3863775780417884
-0.48468668068750276	0.39431062448511983
-0.48462564553125276	0.40064276254255615
-0.48456461037500276	0.4053486722451919
-0.48450357521875276	0.40840949969856993
-0.48444254006250276	0.409812991815961
-0.48438150490625276	0.4095534957667551
-0.48432046975000276	0.4076319761933268
-0.48425943459375276	0.40405606659136867
-0.48419839943750276	0.3988399932249795
-0.48413736428125276	0.3920045370612621
-0.48407632912500276	0.3835769679684149
-0.48401529396875276	0.37359091215732726
-0.48395425881250276	0.3620862464977613
-0.48389322365625276	0.34910892031628993
-0.48383218850000276	0.3347108024556609
-0.48377115334375276	0.3189494350032324
-0.48371011818750276	0.3018878500617272
-0.48364908303125276	0.2835943188703199
-0.48358804787500276	0.26414200649902403
-0.48352701271875276	0.243608809254715
-0.48346597756250276	0.2220769575424699
-0.48340494240625276	0.1996326705088229
-0.48334390725000276	0.17636591036115432
-0.48328287209375276	0.152369958069767
-0.48322183693750276	0.12774099877668327
-0.48316080178125276	0.1025778792574873
-0.48309976662500276	0.0769815871699481
-0.48303873146875276	0.05105484523324625
-0.48297769631250276	0.02490186659191843
-0.48291666115625276	-0.001372296833597437
-0.48285562600000276	-0.027661994639560632
-0.48279459084375276	-0.053861459241391636
-0.48273355568750276	-0.07986526338289472
-0.48267252053125276	-0.10556865443088358
-0.48261148537500276	-0.13086808404917186
-0.48255045021875276	-0.15566150346253865
-0.48248941506250276	-0.17984889665580203
-0.48242837990625276	-0.20333256173628397
-0.48236734475000276	-0.2260175605126263
-0.48230630959375276	-0.2478121732526015
-0.48224527443750276	-0.26862806828938623
-0.48218423928125276	-0.2883808611478124
-0.48212320412500276	-0.30699037882683605
-0.48206216896875276	-0.3243809023129725
-0.48200113381250276	-0.34048162346945904
-0.48194009865625276	-0.3552268067026617
-0.48187906350000276	-0.3685561065334037
-0.48181802834375276	-0.3804148265419977
-0.48175699318750276	-0.3907540911945221
-0.48169595803125276	-0.3995310931979977
-0.48163492287500276	-0.406709244768248
-0.48157388771875276	-0.41225833364620684
-0.48151285256250276	-0.4161546384965084
-0.48145181740625276	-0.41838104595828524
-0.48139078225000276	-0.41892711059943993
-0.48132974709375276	-0.41778909320121893
-0.48126871193750276	-0.41497000037876824
-0.48120767678125276	-0.41047956938208446
-0.48114664162500276	-0.40433421416181925
-0.48108560646875276	-0.39655699827909735
-0.48102457131250276	-0.387177515411896
-0.48096353615625276	-0.37623179859764855
-0.48090250100000276	-0.36376216521201454
-0.48084146584375276	-0.3498170458066594
-0.48078043068750276	-0.33445085030492555
-0.48071939553125276	-0.3177236312132022
-0.48065836037500276	-0.2997010027247664
-0.48059732521875276	-0.28045378294886114
-0.48053629006250276	-0.2600576790222757
-0.48047525490625276	-0.23859314458571695
-0.48041421975000276	-0.21614487759958761
-0.48035318459375276	-0.19280160941803245
-0.48029214943750276	-0.1686557078792201
-0.48023111428125276	-0.1438027751427824
-0.48017007912500276	-0.11834138879032659
-0.48010904396875276	-0.09237254135177458
-0.48004800881250276	-0.06599934084233854
-0.47998697365625276	-0.039326652910076976
-0.47992593850000276	-0.012460518110998724
-0.47986490334375276	0.014492137464736505
-0.47980386818750276	0.04142394046330032
-0.47974283303125276	0.06822757892816815
-0.47968179787500276	0.0947961519861377
-0.47962076271875276	0.12102362703262486
-0.47955972756250276	0.1468052710178475
-0.47949869240625276	0.1720380589114719
-0.47943765725000276	0.19662109707651215
-0.47937662209375276	0.22045600394600107
-0.47931558693750276	0.24344733383716277
-0.47925455178125276	0.2655029692767359
-0.47919351662500276	0.28653442936038476
-0.47913248146875276	0.3064572861023478
-0.47907144631250276	0.3251915170590694
-0.47901041115625276	0.3426617592887327
-0.47894937600000276	0.3587976495777233
-0.47888834084375276	0.37353414005483565
-0.47882730568750276	0.3868117172793062
-0.47876627053125276	0.398576657086066
-0.47870523537500276	0.40878124815399214
-0.47864420021875276	0.4173839809673564
-0.47858316506250276	0.4243497268567859
-0.47852212990625276	0.4296498639590703
-0.47846109475000276	0.4332624184961299
-0.47840005959375276	0.4351721320795033
-0.47833902443750276	0.4353705475952643
-0.47827798928125276	0.4338560425542066
-0.47821695412500276	0.4306338170158105
-0.47815591896875276	0.4257159133590294
-0.47809488381250276	0.41912114621044916
-0.47803384865625276	0.41087503251036817
-0.47797281350000276	0.4010097008092894
-0.47791177834375276	0.38956377399571185
-0.47785074318750276	0.37658219154729555
-0.47778970803125276	0.3621160400331619
-0.47772867287500276	0.3462224077142628
-0.47766763771875276	0.3289640498262646
-0.47760660256250276	0.3104092237578462
-0.47754556740625276	0.290631441518803
-0.47748453225000276	0.26970904834476805
-0.47742349709375276	0.2477250581507342
-0.47736246193750276	0.22476674642764322
-0.47730142678125276	0.20092530092586042
-0.47724039162500276	0.17629548117932994
-0.47717935646875276	0.15097523160242154
-0.47711832131250276	0.125065323310395
-0.47705728615625276	0.09866882554190715
-0.47699625100000276	0.07189090283698642
-0.47693521584375276	0.04483823351941042
-0.47687418068750276	0.01761855199576134
-0.47681314553125276	-0.009659578908558552
-0.47675211037500276	-0.03688741358971323
-0.47669107521875276	-0.06395636804204445
-0.47663004006250276	-0.09075846547602617
-0.47656900490625276	-0.11718673877775738
-0.47650796975000276	-0.14313571164018685
-0.47644693459375276	-0.1685018712732071
-0.47638589943750276	-0.19318387661731412
-0.47632486428125276	-0.21708321028089414
-0.47626382912500276	-0.24010448321184755
-0.47620279396875276	-0.26215570742012845
-0.47614175881250276	-0.2831488792699906
-0.47608072365625276	-0.303000150803086
-0.47601968850000276	-0.3216302523969173
-0.47595865334375276	-0.3389648470086481
-0.47589761818750276	-0.35493469694391794
-0.47583658303125276	-0.3694761210963454
-0.47577554787500276	-0.38253113214063644
-0.47571451271875276	-0.3940476531680418
-0.47565347756250276	-0.40397986533295965
-0.47559244240625276	-0.4122882664327953
-0.47553140725000276	-0.41893985646675713
-0.47547037209375276	-0.423908329204192
-0.47540933693750276	-0.42717412938120536
-0.47534830178125276	-0.4287245377834379
-0.47528726662500276	-0.4285537438408621
-0.47522623146875276	-0.4266628660732337
-0.47516519631250276	-0.4230599393825972
-0.47510416115625276	-0.41775989796315127
-0.47504312600000276	-0.4107845048440295
-0.47498209084375276	-0.40216228457106135
-0.47492105568750276	-0.39192839916830663
-0.47486002053125276	-0.38012449102827517
-0.47479898537500276	-0.3667985680797173
-0.47473795021875276	-0.35200476210522313
-0.47467691506250276	-0.3358031229693675
-0.47461587990625276	-0.3182594073394327
-0.47455484475000276	-0.2994447970385774
-0.47449380959375276	-0.27943557738963754
-0.47443277443750276	-0.25831290669108353
-0.47437173928125276	-0.2361624448530969
-0.47431070412500276	-0.21307395933517545
-0.47424966896875276	-0.18914113027659887
-0.47418863381250276	-0.16446095408847744
-0.47412759865625276	-0.13913347193744874
-0.47406656350000276	-0.11326148034612397
-0.47400552834375276	-0.08694983050262023
-0.47394449318750276	-0.060305219692024896
-0.47388345803125276	-0.03343581117175439
-0.47382242287500276	-0.006450570466432175
-0.47376138771875276	0.020541060457017923
-0.47370035256250276	0.04742944732278792
-0.47363931740625276	0.07410548076999654
-0.47357828225000276	0.10046091906586485
-0.47351724709375276	0.12638864055103988
-0.47345621193750276	0.15178337880720025
-0.47339517678125276	0.17654197360387042
-0.47333414162500276	0.20056376913941637
-0.47327310646875276	0.22375112863702845
-0.47321207131250276	0.24600975795872487
-0.47315103615625276	0.26724910681054664
-0.47309000100000276	0.28738272154579786
-0.47302896584375276	0.3063286523535421
-0.47296793068750276	0.3240097108817975
-0.47290689553125276	0.3403538165820139
-0.47284586037500276	0.35529434135029997
-0.47278482521875276	0.36877029614254375
-0.47272379006250276	0.3807266078227375
-0.47266275490625276	0.3911144117488938
-0.47260171975000276	0.3998911587381554
-0.47254068459375276	0.4070208142171386
-0.47247964943750276	0.41247407033544614
-0.47241861428125276	0.41622839200960443
-0.47235757912500276	0.41826813265720447
-0.47229654396875276	0.4185846210013921
-0.47223550881250276	0.41717619325768046
-0.47217447365625276	0.4140481728782283
-0.47211343850000276	0.4092128948992931
-0.47205240334375276	0.4026896359358498
-0.47199136818750276	0.39450453062859875
-0.47193033303125276	0.38469050571694674
-0.47186929787500276	0.3732871005684829
-0.47180826271875276	0.3603403444242963
-0.47174722756250276	0.34590257301524296
-0.47168619240625276	0.3300322040627042
-0.47162515725000276	0.3127934770734528
-0.47156412209375276	0.2942562907089939
-0.47150308693750276	0.27449581938858625
-0.47144205178125276	0.25359220576177055
-0.47138101662500276	0.23163039678404895
-0.47131998146875276	0.20869957622999763
-0.47125894631250276	0.18489294882289778
-0.47119791115625276	0.16030738248565346
-0.47113687600000276	0.13504286907549323
-0.47107584084375276	0.10920229107313859
-0.47101480568750276	0.08289089935327686
-0.47095377053125276	0.05621590747115575
-0.47089273537500276	0.029286086310957186
-0.47083170021875276	0.002211286604699454
-0.47077066506250276	-0.02489796848146527
-0.47070962990625276	-0.05193100531073729
-0.47064859475000276	-0.07877732579470981
-0.47058755959375276	-0.10532718777529675
-0.47052652443750276	-0.13147199165995008
-0.47046548928125276	-0.1571046559691034
-0.47040445412500276	-0.18212022635548678
