Time	Frequency
-0.5000321863124952	0.3890505802469324
-0.49997115115624524	0.3771190694592182
-0.49991011599999524	0.3634932084025348
-0.49984908084374524	0.3482317866205621
-0.49978804568749524	0.3314008387817442
-0.49972701053124524	0.31307333119554187
-0.49966597537499524	0.29332895033924644
-0.49960494021874524	0.2722536084240039
-0.49954390506249524	0.24993916553786616
-0.49948286990624524	0.2264830769154977
-0.49942183474999524	0.2019877740667763
-0.49936079959374524	0.1765604373164845
-0.49929976443749524	0.15031241841765966
-0.49923872928124524	0.12335870619835623
-0.49917769412499524	0.09581757154424744
-0.49911665896874524	0.06780988588338978
-0.49905562381249524	0.03945867887571037
-0.49899458865624524	0.010888620194475052
-0.49893355349999524	-0.017774614409230984
-0.49887251834374524	-0.04640479940518007
-0.49881148318749524	-0.07487582105282052
-0.49875044803124524	-0.1030621309068072
-0.49868941287499524	-0.13083931768012425
-0.49862837771874524	-0.1580847834085014
-0.49856734256249524	-0.18467806150438212
-0.49850630740624524	-0.21050152251780935
-0.49844527224999524	-0.23544089267104637
-0.49838423709374524	-0.2593856100579947
-0.49832320193749524	-0.28222943812262596
-0.49826216678124524	-0.3038709923250877
-0.49820113162499524	-0.32421399396308626
-0.49814009646874524	-0.3431678299801936
-0.49807906131249524	-0.36064804863520494
-0.49801802615624524	-0.3765764642217515
-0.49795699099999524	-0.39088173512845703
-0.49789595584374524	-0.4034996549002554
-0.49783492068749524	-0.41437332768749363
-0.49777388553124524	-0.4234534982074564
-0.49771285037499524	-0.4306987940918716
-0.49765181521874524	-0.4360758929679494
-0.49759078006249524	-0.4395596150579441
-0.49752974490624524	-0.44113312863026116
-0.49746870974999524	-0.4407879986171052
-0.49740767459374524	-0.43852419269524284
-0.49734663943749524	-0.4343501262109755
-0.49728560428124524	-0.4282826281549719
-0.49722456912499524	-0.4203468531381468
-0.49716353396874524	-0.41057618820059777
-0.49710249881249524	-0.39901210025134387
-0.49704146365624524	-0.38570397926447586
-0.49698042849999524	-0.37070890758016606
-0.49691939334374524	-0.3540913947186476
-0.49685835818749524	-0.3359231611091078
-0.49679732303124524	-0.31628274604047163
-0.49673628787499524	-0.29525521815881883
-0.49667525271874524	-0.27293180614933504
-0.49661421756249524	-0.24940943422618914
-0.49655318240624524	-0.2247904276261615
-0.49649214724999524	-0.19918190810692354
-0.49643111209374524	-0.17269540869516795
-0.49637007693749524	-0.14544648025665405
-0.49630904178124524	-0.1175539088976556
-0.49624800662499524	-0.08913947689524587
-0.49618697146874524	-0.06032737859389538
-0.49612593631249524	-0.031243396305858172
-0.49606490115624524	-0.0020147700251198102
-0.49600386599999524	0.02723060738764047
-0.49594283084374524	0.05636487222739034
-0.49588179568749524	0.0852603990033686
-0.49582076053124524	0.1137906441359233
-0.49575972537499524	0.14183068353613057
-0.49569869021874524	0.16925762494285113
-0.49563765506249524	0.19595124016601917
-0.49557661990624524	0.22179452381346929
-0.49551558474999524	0.24667416128982123
-0.49545454959374524	0.27048102418840647
-0.49539351443749524	0.293110691797787
-0.49533247928124524	0.3144639012716973
-0.49527144412499524	0.3344469855502633
-0.49521040896874524	0.35297224315193343
-0.49514937381249524	0.3699584291521715
-0.49508833865624524	0.38533104084798836
-0.49502730349999524	0.3990226396454466
-0.49496626834374524	0.4109732162885053
-0.49490523318749524	0.42113040393524376
-0.49484419803124524	0.42944974735446634
-0.49478316287499524	0.4358948492801703
-0.49472212771874524	0.44043761497236794
-0.49466109256249524	0.4430583208841897
-0.49460005740624524	0.4437456968427212
-0.49453902224999524	0.442497041794199
-0.49447798709374524	0.43931816584257616
-0.49441695193749524	0.43422342090533
-0.49435591678124524	0.4272356113699653
-0.49429488162499524	0.4183859072331086
-0.49423384646874524	0.4077137095868383
-0.49417281131249524	0.3952664746387239
-0.49411177615624524	0.38109950567782025
-0.49405074099999524	0.36527571092988853
-0.49398970584374524	0.3478653667461945
-0.49392867068749524	0.32894568818989334
-0.49386763553124524	0.30860066597919855
-0.49380660037499524	0.2869205867381008
-0.49374556521874524	0.26400154866205544
-0.49368453006249524	0.23994531069555364
-0.49362349490624524	0.21485855780044166
-0.49356245974999524	0.18885253274145838
-0.49350142459374524	0.16204268543364392
-0.49344038943749524	0.1345478933224169
-0.49337935428124524	0.106490107129953
-0.49331831912499524	0.07799389376235331
-0.49325728396874524	0.04918561743009569
-0.49319624881249524	0.020193094481297028
-0.49313521365624524	-0.00885498483338378
-0.49307417849999524	-0.037829758783921356
-0.49301314334374524	-0.06660262174960889
-0.49295210818749524	-0.09504591908288991
-0.49289107303124524	-0.12303338194875502
-0.49283003787499524	-0.1504408021184565
-0.49276900271874524	-0.17714658346269382
-0.49270796756249524	-0.20303213971785072
-0.49264693240624524	-0.227982586176358
-0.49258589724999524	-0.2518872326695357
-0.49252486209374524	-0.2746399509119502
-0.49246382693749524	-0.29613973586431647
-0.49240279178124524	-0.31629125598432617
-0.49234175662499524	-0.3350050565900557
-0.49228072146874524	-0.35219810308194094
-0.49221968631249524	-0.3677942125079846
-0.49215865115624524	-0.3817241992877951
-0.49209761599999524	-0.39392633102695
-0.49203658084374524	-0.40434661902287183
-0.49197554568749524	-0.4129389686308294
-0.49191451053124524	-0.4196654112895308
-0.49185347537499524	-0.42449634046732615
-0.49179244021874524	-0.4274106081737473
-0.49173140506249524	-0.4283955619508089
-0.49167036990624524	-0.4274471957834629
-0.49160933474999524	-0.4245701520847792
-0.49154829959374524	-0.41977764461887535
-0.49148726443749524	-0.4130914583104079
-0.49142622928124524	-0.4045418659887544
-0.49136519412499524	-0.39416743269020665
-0.49130415896874524	-0.38201491115371966
-0.49124312381249524	-0.368139010351964
-0.49118208865624524	-0.3526021243295005
-0.49112105349999524	-0.3354741494580785
-0.49106001834374524	-0.31683203731769427
-0.49099898318749524	-0.29675958834417127
-0.49093794803124524	-0.275347006109419
-0.49087691287499524	-0.25269048453835863
-0.49081587771874524	-0.22889187729782004
-0.49075484256249524	-0.20405808520614158
-0.49069380740624524	-0.17830075853550065
-0.49063277224999524	-0.1517356660360404
-0.49057173709374524	-0.12448225183737105
-0.49051070193749524	-0.09666307289624994
-0.49044966678124524	-0.0684032232315229
-0.49038863162499524	-0.03982993407997049
-0.49032759646874524	-0.011071712736428012
-0.49026656131249524	0.017741938111614692
-0.49020552615624524	0.046481198093247
-0.49014449099999524	0.07501668359443316
-0.49008345584374524	0.10321968454468475
-0.49002242068749524	0.13096303440535825
-0.48996138553124524	0.15812160193452934
-0.48990035037499524	0.18457271225349509
-0.48983931521874524	0.2101969012332587
-0.48977828006249524	0.23487834037541366
-0.48971724490624524	0.2585053384412158
-0.48965620974999524	0.2809709131141511
-0.48959517459374524	0.30217323039360766
-0.48953413943749524	0.3220160622499614
-0.48947310428124524	0.3404092432640954
-0.48941206912499524	0.35726904298057705
-0.48935103396874524	0.3725185808801187
-0.48928999881249524	0.38608815259541196
-0.48922896365624524	0.3979155314116485
-0.48916792849999524	0.40794630994014597
-0.48910689334374524	0.4161340651741264
-0.48904585818749524	0.4224406274203457
-0.48898482303124524	0.42683626929562585
-0.48892378787499524	0.429299764593136
-0.48886275271874524	0.42981858074394425
-0.48880171756249524	0.42838888729557806
-0.48874068240624524	0.4250155785087797
-0.48867964724999524	0.4197122830407726
-0.48861861209374524	0.4125012853534019
-0.48855757693749524	0.4034134416180022
-0.48849654178124524	0.3924880335352538
-0.48843550662499524	0.3797726378966903
-0.48837447146874524	0.3653228451105167
-0.48831343631249524	0.3492020831430821
-0.48825240115624524	0.33148134468807805
-0.48819136599999524	0.31223876657787714
-0.48813033084374524	0.29155942381513295
-0.48806929568749524	0.2695348986856232
-0.48800826053124524	0.24626279089089284
-0.48794722537499524	0.2218464418644921
-0.48788619021874524	0.19639436775458827
-0.48782515506249524	0.17001977053385603
-0.48776411990624524	0.14284010351821574
-0.48770308474999524	0.11497650484571266
-0.48764204959374524	0.0865532563913785
-0.48758101443749524	0.05769721611065035
-0.48751997928124524	0.028537342806356135
-0.48745894412499524	-0.0007960539223957659
-0.48739790896874524	-0.03017171547311171
-0.48733687381249524	-0.059458093814537205
-0.48727583865624524	-0.08852405121938269
-0.48721480349999524	-0.11723918717034018
-0.48715376834374524	-0.1454746866023367
-0.48709273318749524	-0.17310379551951824
-0.48703169803124524	-0.20000228378967053
-0.48697066287499524	-0.22604919173849802
-0.48690962771874524	-0.2511272944120928
-0.48684859256249524	-0.2751235486640126
-0.48678755740624524	-0.29792968909360223
-0.48672652224999524	-0.3194427795990867
-0.48666548709374524	-0.3395655013755707
-0.48660445193749524	-0.3582066931713255
-0.48654341678124524	-0.3752818770138727
-0.48648238162499524	-0.39071336019111896
-0.48642134646874524	-0.40443083918035866
-0.48636031131249524	-0.4163716733087037
-0.48629927615624524	-0.4264809908035573
-0.48623824099999524	-0.4347122023827576
-0.48617720584374524	-0.4410270464314826
-0.48611617068749524	-0.4453957645550959
-0.48605513553124524	-0.4477973491776793
-0.48599410037499524	-0.4482195405475152
-0.48593306521874524	-0.4466589156237462
-0.48587203006249524	-0.4431209401991524
-0.48581099490624524	-0.43761990548888696
-0.48574995974999524	-0.43017890065981623
-0.48568892459374524	-0.42082969371942053
-0.48562788943749524	-0.4096126125925576
-0.48556685428124524	-0.39657635344935444
-0.48550581912499524	-0.38177776767980487
-0.48544478396874524	-0.3652816580740729
-0.48538374881249524	-0.3471603741068891
-0.48532271365624524	-0.3274936543966638
-0.48526167849999524	-0.3063681696276347
-0.48520064334374524	-0.2838770795897841
-0.48513960818749524	-0.2601198362998037
-0.48507857303124524	-0.23520149634981707
-0.48501753787499524	-0.20923237794554075
-0.48495650271874524	-0.1823276178574364
-0.48489546756249524	-0.15460649423243988
-0.48483443240624524	-0.12619206650371856
-0.48477339724999524	-0.09721052691910917
-0.48471236209374524	-0.0677906454907253
-0.48465132693749524	-0.03806323259734075
-0.48459029178124524	-0.008160505913368019
-0.48452925662499524	0.02178444199317232
-0.48446822146874524	0.051638301771782455
-0.48440718631249524	0.08126814292464034
-0.48434615115624524	0.11054193429700007
-0.48428511599999524	0.13932919293872514
-0.48422408084374524	0.1675016422704124
-0.48416304568749524	0.19493361460977104
-0.48410201053124524	0.22150274100908773
-0.48404097537499524	0.247090544595573
-0.48397994021874524	0.27158280709976157
-0.48391890506249524	0.2948702190479749
-0.48385786990624524	0.316848874451858
-0.48379683474999524	0.3374206291550899
-0.48373579959374524	0.3564936471837534
-0.48367476443749524	0.3739828200581542
-0.48361372928124524	0.3898100193093361
-0.48355269412499524	0.4039046396105104
-0.48349165896874524	0.41620380390354406
-0.48343062381249524	0.42665259939652483
-0.48336958865624524	0.4352044935901641
-0.48330855349999524	0.4418214075205181
-0.48324751834374524	0.4464739171906787
-0.48318648318749524	0.44914143281874497
-0.48312544803124524	0.4498122651498747
-0.48306441287499524	0.448483669191697
-0.48300337771874524	0.4451618824150294
-0.48294234256249524	0.43986210145457766
-0.48288130740624524	0.43260839093549974
-0.48282027224999524	0.42343360434876726
-0.48275923709374524	0.4123792358177835
-0.48269820193749524	0.39949522463781484
-0.48263716678124524	0.38483972469024863
-0.48257613162499524	0.36847890514907977
-0.48251509646874524	0.35048657178578513
-0.48245406131249524	0.3309438646504138
-0.48239302615624524	0.3099389751696745
-0.48233199099999524	0.2875666074663869
-0.48227095584374524	0.26392767004383105
-0.48220992068749524	0.23912878447355684
-0.48214888553124524	0.21328179057846963
-0.48208785037499524	0.18650326609252485
-0.48202681521874524	0.1589140033858169
-0.48196578006249524	0.13063844942404113
-0.48190474490624524	0.10180413530522671
-0.48184370974999524	0.07254120301297193
-0.48178267459374524	0.04298161650731161
-0.48172163943749524	0.013258789146786198
-0.48166060428124524	-0.016493140509020465
-0.48159956912499524	-0.04613994149667615
-0.48153853396874524	-0.0755477725054925
-0.48147749881249524	-0.10458392209582974
-0.48141646365624524	-0.13311728063676864
-0.48135542849999524	-0.161019080592016
-0.48129439334374524	-0.18816331224244498
-0.48123335818749524	-0.21442742499624062
-0.48117232303124524	-0.23969284708994817
-0.48111128787499524	-0.26384544265300686
-0.48105025271874524	-0.2867761945752404
-0.48098921756249524	-0.3083815160950612
-0.48092818240624524	-0.32856383945578327
-0.48086714724999524	-0.3472320414891204
-0.48080611209374524	-0.36430181906462833
-0.48074507693749524	-0.37969609091077244
-0.48068404178124524	-0.39334537810029346
-0.48062300662499524	-0.405188097109127
-0.48056197146874524	-0.4151707909639461
-0.48050093631249524	-0.42324849521362784
-0.48043990115624524	-0.42938483055201726
-0.48037886599999524	-0.4335522072116075
-0.48031783084374524	-0.4357319986160356
-0.48025679568749524	-0.43591454464725576
-0.48019576053124524	-0.4340992790187785
-0.48013472537499524	-0.4302946792408833
-0.48007369021874524	-0.4245182563478714
-0.48001265506249524	-0.416796492881591
-0.47995161990624524	-0.4071646729607511
-0.47989058474999524	-0.39566679644814257
-0.47982954959374524	-0.3823553365878948
-0.47976851443749524	-0.3672910010150537
-0.47970747928124524	-0.35054249925271375
-0.47964644412499524	-0.3321862023286259
-0.47958540896874524	-0.31230580599391605
-0.47952437381249524	-0.2909919392350653
-0.47946333865624524	-0.26834181523431794
-0.47940230349999524	-0.2444587222770109
-0.47934126834374524	-0.2194515627885023
-0.47928023318749524	-0.1934344560293666
-0.47921919803124524	-0.1665260756126232
-0.47915816287499524	-0.13884922506289668
-0.47909712771874524	-0.1105302592112969
-0.47903609256249524	-0.08169844961774488
-0.47897505740624524	-0.052485510785139994
-0.47891402224999524	-0.02302489802039665
-0.47885298709374524	0.006548778524733345
-0.47879195193749524	0.036100251946787024
-0.47873091678124524	0.06549438850080336
-0.47866988162499524	0.09459672073352428
-0.47860884646874524	0.12327394920448419
-0.47854781131249524	0.15139479362995586
-0.47848677615624524	0.17883035302862357
-0.47842574099999524	0.2054548005622401
-0.47836470584374524	0.23114601436718551
-0.47830367068749524	0.2557859762096806
-0.47824263553124524	0.27926147314121286
-0.47818160037499524	0.30146449551519733
-0.47812056521874524	0.3222927936624834
-0.47805953006249524	0.3416503565882089
-0.47799849490624524	0.3594477898097414
-0.47793745974999524	0.37560275751217864
-0.47787642459374524	0.39004039894795073
-0.47781538943749524	0.40269363298398236
-0.47775435428124524	0.4135034258282761
-0.47769331912499524	0.4224191746615384
-0.47763228396874524	0.429398862788558
-0.47757124881249524	0.43440923216963834
-0.47751021365624524	0.4374260306335791
-0.47744917849999524	0.4384340686071395
-0.47738814334374524	0.4374272697303355
-0.47732710818749524	0.4344087701808416
-0.47726607303124524	0.42939087327137593
-0.47720503787499524	0.4223949779887193
-0.47714400271874524	0.4134515380683446
-0.47708296756249524	0.4025998873481732
-0.47702193240624524	0.3898880811346999
-0.47696089724999524	0.37537269450379823
-0.47689986209374524	0.35911852728346333
-0.47683882693749524	0.34119839171340777
-0.47677779178124524	0.32169270359912633
-0.47671675662499524	0.30068913517158846
-0.47665572146874524	0.27828233248116874
-0.47659468631249524	0.25457329483438323
-0.47653365115624524	0.22966904875274136
-0.47647261599999524	0.20368221426744781
-0.47641158084374524	0.17673030935495812
-0.47635054568749524	0.14893538387158772
-0.47628951053124524	0.12042342217275866
-0.47622847537499524	0.09132374875275283
-0.47616744021874524	0.06176842480852131
-0.47610640506249524	0.031891694716743135
-0.47604536990624524	0.0018294237568402393
-0.47598433474999524	-0.028281713425196302
-0.47592329959374524	-0.05830462722674336
-0.47586226443749524	-0.08810253791181806
-0.47580122928124524	-0.11753965996309226
-0.47574019412499524	-0.14648170461288681
-0.47567915896874524	-0.1747965646887552
-0.47561812381249524	-0.20235485216776458
-0.47555708865624524	-0.2290306378096903
-0.47549605349999524	-0.2547018515359476
-0.47543501834374524	-0.27925086664149856
-0.47537398318749524	-0.3025652059038212
-0.47531294803124524	-0.3245378620622679
-0.47525191287499524	-0.3450678421348053
-0.47519087771874524	-0.36406070674251295
-0.47512984256249524	-0.3814289480946434
-0.47506880740624524	-0.39709234259589826
-0.47500777224999524	-0.4109784055734092
-0.47494673709374524	-0.4230227229277402
-0.47488570193749524	-0.4331691635741593
-0.47482466678124524	-0.4413702322502158
-0.47476363162499524	-0.44758725639293456
-0.47470259646874524	-0.4517905491186487
-0.47464156131249524	-0.4539595870385904
-0.47458052615624524	-0.4540830801930953
-0.47451949099999524	-0.45215904223714765
-0.47445845584374524	-0.44819480490720764
-0.47439742068749524	-0.4422069886799976
-0.47433638553124524	-0.43422142274169623
-0.47427535037499524	-0.42427305599300896
-0.47421431521874524	-0.4124057797889853
-0.47415328006249524	-0.398672241341254
-0.47409224490624524	-0.38313361909988225
-0.47403120974999524	-0.3658593245027327
-0.47397017459374524	-0.3469267328183085
-0.47390913943749524	-0.32642076459759056
-0.47384810428124524	-0.3044335872509928
-0.47378706912499524	-0.28106415378776484
-0.47372603396874524	-0.25641770059851526
-0.47366499881249524	-0.23060543617216991
-0.47360396365624524	-0.2037438299914713
-0.47354292849999524	-0.17595422140123185
-0.47348189334374524	-0.147362274045948
-0.47342085818749524	-0.11809728754756384
-0.47335982303124524	-0.08829174056973133
-0.47329878787499524	-0.058080606848274235
-0.47323775271874524	-0.027600808376169288
-0.47317671756249524	0.0030095291159982877
-0.47311568240624524	0.033611567199129125
-0.47305464724999524	0.06406641144789174
-0.47299361209374524	0.09423590012641589
-0.47293257693749524	0.12398300958313106
-0.47287154178124524	0.1531725988037723
-0.47281050662499524	0.18167208242788188
-0.47274947146874524	0.20935192584046697
-0.47268843631249524	0.23608622549054542
-0.47262740115624524	0.2617534600907958
-0.47256636599999524	0.2862368829449463
-0.47250533084374524	0.30942499414310354
-0.47244429568749524	0.3312123772514681
-0.47238326053124524	0.35149980842449896
-0.47232222537499524	0.3701948610276484
-0.47226119021874524	0.38721251103003
-0.47220015506249524	0.4024751750449578
-0.47213911990624524	0.4159133336505549
-0.47207808474999524	0.4274658114309211
-0.47201704959374524	0.43707995048454096
-0.47195601443749524	0.4447119774712275
-0.47189497928124524	0.45032712897373045
-0.47183394412499524	0.45389985365279933
-0.47177290896874524	0.4554139399575459
-0.47171187381249524	0.45486253692257245
-0.47165083865624524	0.4522482589314612
-0.47158980349999524	0.44758315097244955
-0.47152876834374524	0.44088860713489597
-0.47146773318749524	0.43219532941669214
-0.47140669803124524	0.421543153864998
-0.47134566287499524	0.40898088527120424
-0.47128462771874524	0.3945660733598354
-0.47122359256249524	0.37836475947381626
-0.47116255740624524	0.3604511727688473
-0.47110152224999524	0.3409073763252392
-0.47104048709374524	0.3198229522369644
-0.47097945193749524	0.29729449299665645
-0.47091841678124524	0.2734252759603879
-0.47085738162499524	0.24832472403944245
-0.47079634646874524	0.22210787530225962
-0.47073531131249524	0.1948950110275085
-0.47067427615624524	0.16681084443344638
-0.47061324099999524	0.13798423446106525
-0.47055220584374524	0.10854746368534884
-0.47049117068749524	0.078635469731578
-0.47043013553124524	0.048385631714782
-0.47036910037499524	0.017936747058601012
