Time	Frequency
-0.500056028000003	0.29699354078502854
-0.49999499284375304	0.27776783784400766
-0.49993395768750304	0.2573815307684992
-0.49987292253125304	0.23591943716783476
-0.49981188737500304	0.2134708530535847
-0.49975085221875304	0.1901291743416732
-0.49968981706250304	0.16599158399547506
-0.49962878190625304	0.14115851565508256
-0.49956774675000304	0.11573337095405024
-0.49950671159375304	0.08982204783392322
-0.49944567643750304	0.06353246061715324
-0.49938464128125304	0.03697415161855331
-0.49932360612500304	0.010257812633933999
-0.49926257096875304	-0.016505147586649727
-0.49920153581250304	-0.04320313200052296
-0.49914050065625304	-0.06972471999670578
-0.49907946550000304	-0.09595919225611711
-0.49901843034375304	-0.12179701231699272
-0.49895739518750304	-0.14713018535584219
-0.49889636003125304	-0.17185281466092392
-0.49883532487500304	-0.19586146287183365
-0.49877428971875304	-0.2190556191680013
-0.49871325456250304	-0.24133812315718814
-0.49865221940625304	-0.26261551268257466
-0.49859118425000304	-0.28279852861262506
-0.49853014909375304	-0.30180233627733277
-0.49846911393750304	-0.3195469705759618
-0.49840807878125304	-0.33595773505459103
-0.49834704362500304	-0.3509653232804876
-0.49828600846875304	-0.36450627016685333
-0.49822497331250304	-0.3765232060553328
-0.49816393815625304	-0.3869649990099248
-0.49810290300000304	-0.3957870534409247
-0.49804186784375304	-0.40295149153330184
-0.49798083268750304	-0.40842728782024756
-0.49791979753125304	-0.4121904050240192
-0.49785876237500304	-0.41422391856339924
-0.49779772721875304	-0.4145180808279078
-0.49773669206250304	-0.41307034853645686
-0.49767565690625304	-0.4098854169799139
-0.49761462175000304	-0.404975212765825
-0.49755358659375304	-0.3983588197120291
-0.49749255143750304	-0.3900624238399005
-0.49743151628125304	-0.3801192123739983
-0.49737048112500304	-0.3685692256500636
-0.49730944596875304	-0.35545920127683417
-0.49724841081250304	-0.3408423949595383
-0.49718737565625304	-0.32477834991962107
-0.49712634050000304	-0.3073326446650824
-0.49706530534375304	-0.28857666820066036
-0.49700427018750304	-0.26858727016921424
-0.49694323503125304	-0.24744647555173782
-0.49688219987500304	-0.22524116874286257
-0.49682116471875304	-0.20206268477407213
-0.49676012956250304	-0.1780064774600616
-0.49669909440625304	-0.1531717026110263
-0.49663805925000304	-0.12766081666740664
-0.49657702409375304	-0.10157916059475415
-0.49651598893750304	-0.0750345049006406
-0.49645495378125304	-0.048136626349532745
-0.49639391862500304	-0.02099684326679932
-0.49633288346875304	0.006272442398550584
-0.49627184831250304	0.033558222045225496
-0.49621081315625304	0.06074734056354388
-0.49614977800000304	0.08772695071004423
-0.49608874284375304	0.11438496181841974
-0.49602770768750304	0.14061063052806394
-0.49596667253125304	0.16629489252356333
-0.49590563737500304	0.19133073224485814
-0.49584460221875304	0.2156139369510468
-0.49578356706250304	0.23904327158878214
-0.49572253190625304	0.26152086001299424
-0.49566149675000304	0.28295285640414514
-0.49560046159375304	0.30324965229392936
-0.49553942643750304	0.3223261971533528
-0.49547839128125304	0.3401025235414398
-0.49541735612500304	0.3565039826507561
-0.49535632096875304	0.37146153816011185
-0.49529528581250304	0.38491214536481894
-0.49523425065625304	0.39679890027427595
-0.49517321550000304	0.4070713924126787
-0.49511218034375304	0.41568585257637275
-0.49505114518750304	0.42260531442119925
-0.49499011003125304	0.42779987062435504
-0.49492907487500304	0.43124669644493124
-0.49486803971875304	0.43293020498550616
-0.49480700456250304	0.4328421111384716
-0.49474596940625304	0.43098144431161006
-0.49468493425000304	0.42735459405817494
-0.49462389909375304	0.42197525704838285
-0.49456286393750304	0.4148643988784797
-0.49450182878125304	0.4060501667245882
-0.49444079362500304	0.3955677820550643
-0.49437975846875304	0.3834593905280744
-0.49431872331250304	0.36977389477951844
-0.49425768815625304	0.354566763555869
-0.49419665300000304	0.3378997734881057
-0.49413561784375304	0.3198408250972871
-0.49407458268750304	0.30046356123382323
-0.49401354753125304	0.2798471482337299
-0.49395251237500304	0.25807596952207945
-0.49389147721875304	0.2352391238213184
-0.49383044206250304	0.2114302731755081
-0.49376940690625304	0.18674711470666033
-0.49370837175000304	0.16129094980337827
-0.49364733659375304	0.13516643521012794
-0.49358630143750304	0.10848097269987832
-0.49352526628125304	0.08134432507939716
-0.49346423112500304	0.05386822351106675
-0.49340319596875304	0.02616579017181972
-0.49334216081250304	-0.001648817017668745
-0.49328112565625304	-0.029460954713573205
-0.49322009050000304	-0.05715598468369276
-0.49315905534375304	-0.08461962625464177
-0.49309802018750304	-0.11173859599587833
-0.49303698503125304	-0.13840098434133213
-0.49297594987500304	-0.16449670275363387
-0.49291491471875304	-0.18991799626231243
-0.49285387956250304	-0.21455991228466828
-0.49279284440625304	-0.23832065176514855
-0.49273180925000304	-0.26110201705206093
-0.49267077409375304	-0.2828099602273235
-0.49260973893750304	-0.3033547345379426
-0.49254870378125304	-0.32265144606005425
-0.49248766862500304	-0.34062040684883954
-0.49242663346875304	-0.3571873413340676
-0.49236559831250304	-0.3722838314006623
-0.49230456315625304	-0.38584753203022604
-0.49224352800000304	-0.39782246580715
-0.49218249284375304	-0.40815921047170267
-0.49212145768750304	-0.41681517422620784
-0.49206042253125304	-0.4237547481760533
-0.49199938737500304	-0.42894940061489356
-0.49193835221875304	-0.43237790785264185
-0.49187731706250304	-0.4340263559271862
-0.49181628190625304	-0.4338882301382938
-0.49175524675000304	-0.43196446708848973
-0.49169421159375304	-0.4282634077956011
-0.49163317643750304	-0.42280081134193637
-0.49157214128125304	-0.4155997671022235
-0.49151110612500304	-0.4066905867510418
-0.49145007096875304	-0.39611073439053307
-0.49138903581250304	-0.383904606226951
-0.49132800065625304	-0.37012338114652954
-0.49126696550000304	-0.3548248423236131
-0.49120593034375304	-0.3380730523618513
-0.49114489518750304	-0.3199381668091539
-0.49108386003125304	-0.3004961334205018
-0.49102282487500304	-0.2798283141011016
-0.49096178971875304	-0.25802121475962986
-0.49090075456250304	-0.23516613349224993
-0.49083971940625304	-0.21135868863400956
-0.49077868425000304	-0.18669852636096337
-0.49071764909375304	-0.1612888674784215
-0.49065661393750304	-0.13523601489405207
-0.49059557878125304	-0.10864904571585156
-0.49053454362500304	-0.08163921771228753
-0.49047350846875304	-0.054319573520836974
-0.49041247331250304	-0.026804502645304224
-0.49035143815625304	0.0007908409327247309
-0.49029040300000304	0.028350924227693364
-0.49022936784375304	0.05576036126377354
-0.49016833268750304	0.08290437889932799
-0.49010729753125304	0.10966930636253941
-0.49004626237500304	0.13594309492971268
-0.48998522721875304	0.1616156892706169
-0.48992419206250304	0.18657953460231844
-0.48986315690625304	0.21073012148890827
-0.48980212175000304	0.23396626577791887
-0.48974108659375304	0.25619060092478935
-0.48968005143750304	0.2773100718173996
-0.48961901628125304	0.29723616399790326
-0.48955798112500304	0.31588541761015215
-0.48949694596875304	0.33317971011018094
-0.48943591081250304	0.3490465601332067
-0.48937487565625304	0.3634195463764615
-0.48931384050000304	0.3762384525315384
-0.48925280534375304	0.3874495926513037
-0.48919177018750304	0.39700606481212514
-0.48913073503125304	0.4048678792912107
-0.48906969987500304	0.41100217174699866
-0.48900866471875304	0.4153833546557866
-0.48894762956250304	0.41799318863713064
-0.48888659440625304	0.4188208930869056
-0.48882555925000304	0.4178631892928458
-0.48876452409375304	0.41512429692735286
-0.48870348893750304	0.4106159514394533
-0.48864245378125304	0.40435732758591014
-0.48858141862500304	0.39637498263375653
-0.48852038346875304	0.38670273817802236
-0.48845934831250304	0.3753815390295343
-0.48839831315625304	0.3624592945633405
-0.48833727800000304	0.34799066857679467
-0.48827624284375304	0.33203685968511215
-0.48821520768750304	0.31466533070554376
-0.48815417253125304	0.29594958641200775
-0.48809313737500304	0.27596875880799204
-0.48803210221875304	0.25480735660008036
-0.48797106706250304	0.2325549701363619
-0.48791003190625304	0.20930569302922344
-0.48784899675000304	0.18515794881377834
-0.48778796159375304	0.16021399488524882
-0.48772692643750304	0.13457938539461675
-0.48766589128125304	0.10836275690260871
-0.48760485612500304	0.08167516321274333
-0.48754382096875304	0.05462968678130933
-0.48748278581250304	0.02734104188783445
-0.48742175065625304	-7.507823861644319e-05
-0.48736071550000304	-0.027502331688042614
-0.48729968034375304	-0.05482428361926103
-0.48723864518750304	-0.08192491426929616
-0.48717761003125304	-0.10868906043690046
-0.48711657487500304	-0.13500296125426836
-0.48705553971875304	-0.16075465729621385
-0.48699450456250304	-0.18583452574721612
-0.48693346940625304	-0.21013575860994524
-0.48687243425000304	-0.23355474175739113
-0.48681139909375304	-0.2559915277003913
-0.48675036393750304	-0.277350307387368
-0.48668932878125304	-0.2975397631383125
-0.48662829362500304	-0.31647341715248706
-0.48656725846875304	-0.33407011349373406
-0.48650622331250304	-0.35025427591640307
-0.48644518815625304	-0.3649562162335195
-0.48638415300000304	-0.3781125407347542
-0.48632311784375304	-0.38966627969369794
-0.48626208268750304	-0.39956721942177476
-0.48620104753125304	-0.4077721377422158
-0.48614001237500304	-0.41424488440792356
-0.48607897721875304	-0.41895665197057613
-0.48601794206250304	-0.42188604544338754
-0.48595690690625304	-0.4230191643051203
-0.48589587175000304	-0.4223497168810183
-0.48583483659375304	-0.419878999542797
-0.48577380143750304	-0.4156159256929116
-0.48571276628125304	-0.4095769871437178
-0.48565173112500304	-0.40178618556773255
-0.48559069596875304	-0.39227493540818137
-0.48552966081250304	-0.38108193717276073
-0.48546862565625304	-0.368253032690563
-0.48540759050000304	-0.35384098303794087
-0.48534655534375304	-0.3379052866757203
-0.48528552018750304	-0.3205119144021248
-0.48522448503125304	-0.3017330205912596
-0.48516344987500304	-0.28164669584356156
-0.48510241471875304	-0.2603365711094477
-0.48504137956250304	-0.23789150290396022
-0.48498034440625304	-0.21440525585271925
-0.48491930925000304	-0.18997596118413496
-0.48485827409375304	-0.1647058701953671
-0.48479723893750304	-0.13870088703256941
-0.48473620378125304	-0.11206995868627703
-0.48467516862500304	-0.08492490004215046
-0.48461413346875304	-0.05737971254459854
-0.48455309831250304	-0.02955011539268124
-0.48449206315625304	-0.0015532291763762655
-0.48443102800000304	0.02649314763037209
-0.48436999284375304	0.05447087472462887
-0.48430895768750304	0.08226198963985455
-0.48424792253125304	0.10974928717479025
-0.48418688737500304	0.13681676038636673
-0.48412585221875304	0.16335001879795474
-0.48406481706250304	0.18923689192417786
-0.48400378190625304	0.21436795254770488
-0.48394274675000304	0.23863665918818308
-0.48388171159375304	0.2619402172817793
-0.48382067643750304	0.2841798360024078
-0.48375964128125304	0.30526095103718115
-0.48369860612500304	0.3250940654061802
-0.48363757096875304	0.3435947061830147
-0.48357653581250304	0.3606839959858066
-0.48351550065625304	0.37628905829292014
-0.48345446550000304	0.3903430437951888
-0.48339343034375304	0.4027857453421049
-0.48333239518750304	0.4135636616440298
-0.48327136003125304	0.42263022114510895
-0.48321032487500304	0.4299461245130907
-0.48314928971875304	0.43547935090450773
-0.48308825456250304	0.43920540342039815
-0.48302721940625304	0.44110738693500334
-0.48296618425000304	0.44117605772690904
-0.48290514909375304	0.43940992922215244
-0.48284411393750304	0.43581520537691804
-0.48278307878125304	0.43040581683594104
-0.48272204362500304	0.4232033568908788
-0.48266100846875304	0.4142369621676658
-0.48259997331250304	0.4035432320727022
-0.48253893815625304	0.3911660655902291
-0.48247790300000304	0.3771564681800158
-0.48241686784375304	0.36157235453386205
-0.48235583268750304	0.34447830343821606
-0.48229479753125304	0.32594528330848294
-0.48223376237500304	0.30605038246894256
-0.48217272721875304	0.2848764201325813
-0.48211169206250304	0.2625116879713873
-0.48205065690625304	0.23904953766247208
-0.48198962175000304	0.21458792093856094
-0.48192858659375304	0.18922914420848516
-0.48186755143750304	0.1630792647530668
-0.48180651628125304	0.13624774000019046
-0.48174548112500304	0.1088469738146456
-0.48168444596875304	0.08099173598058748
-0.48162341081250304	0.052798875722290514
-0.48156237565625304	0.02438660218235537
-0.48150134050000304	-0.004125882882534424
-0.48144030534375304	-0.032618851793102595
-0.48137927018750304	-0.06097270159589792
-0.48131823503125304	-0.08906830679676965
-0.48125719987500304	-0.11678767209224777
-0.48119616471875304	-0.1440142906069417
-0.48113512956250304	-0.1706336679480781
-0.48107409440625304	-0.19653397989369709
-0.48101305925000304	-0.2216062672098249
-0.48095202409375304	-0.24574506426845416
-0.48089098893750304	-0.26884891543008277
-0.48082995378125304	-0.2908205781822389
-0.48076891862500304	-0.3115676570182449
-0.48070788346875304	-0.33100289589717896
-0.48064684831250304	-0.3490445263158902
-0.48058581315625304	-0.36561670690760745
-0.48052477800000304	-0.38064973525650503
-0.48046374284375304	-0.39408046396842306
-0.48040270768750304	-0.4058524682676581
-0.48034167253125304	-0.41591632349482743
-0.48028063737500304	-0.42422987519645644
-0.48021960221875304	-0.4307583146841677
-0.48015856706250304	-0.4354744017238356
-0.48009753190625304	-0.4383585820685659
-0.48003649675000304	-0.4393990357882344
-0.47997546159375304	-0.4385917515072298
-0.47991442643750304	-0.43594055716131647
-0.47985339128125304	-0.43145708848253733
-0.47979235612500304	-0.4251607413968396
-0.47973132096875304	-0.4170786152102767
-0.47967028581250304	-0.40724537510305125
-0.47960925065625304	-0.39570310956875665
-0.47954821550000304	-0.38250118819930506
-0.47948718034375304	-0.3676960011927493
-0.47942614518750304	-0.35135075915003733
-0.47936511003125304	-0.3335352289922605
-0.47930407487500304	-0.31432540888311966
-0.47924303971875304	-0.29380324466802193
-0.47918200456250304	-0.2720562470504074
-0.47912096940625304	-0.24917716408650967
-0.47905993425000304	-0.22526353888664033
-0.47899889909375304	-0.20041734493002714
-0.47893786393750304	-0.17474453144294833
-0.47887682878125304	-0.148354526214314
-0.47881579362500304	-0.12135990241539933
-0.47875475846875304	-0.09387574854186889
-0.47869372331250304	-0.06601927250890811
-0.47863268815625304	-0.0379092928580258
-0.47857165300000304	-0.009665681185170227
-0.47851061784375304	0.018591050853019552
-0.47844958268750304	0.046740383101690604
-0.47838854753125304	0.07466220234756893
-0.47832751237500304	0.10223736395717754
-0.47826647721875304	0.1293481835261513
-0.47820544206250304	0.15587894430690685
-0.47814440690625304	0.18171640805301692
-0.47808337175000304	0.20675022430253168
-0.47802233659375304	0.23087352896920127
-0.47796130143750304	0.253983306085704
-0.47790026628125304	0.27598080065192515
-0.47783923112500304	0.2967720577440356
-0.47777819596875304	0.31626827489765763
-0.47771716081250304	0.33438606574957636
-0.47765612565625304	0.35104802652428163
-0.47759509050000304	0.36618294406554897
-0.47753405534375304	0.3797260320244468
-0.47747302018750304	0.39161944660626186
-0.47741198503125304	0.40181225440630075
-0.47735094987500304	0.410260840573376
-0.47728991471875304	0.41692909343118506
-0.47722887956250304	0.4217884023797051
-0.47716784440625304	0.42481798402444526
-0.47710680925000304	0.4260048473523007
-0.47704577409375304	0.4253438885017016
-0.47698473893750304	0.42283792037903545
-0.47692370378125304	0.418497650370456
-0.47686266862500304	0.41234166556129553
-0.47680163346875304	0.40439630734859194
-0.47674059831250304	0.3946956229926859
-0.47667956315625304	0.383281171240383
-0.47661852800000304	0.37020186903773744
-0.47655749284375304	0.3555138133045384
-0.47649645768750304	0.33927996696817847
-0.47643542253125304	0.32156998870900466
-0.47637438737500304	0.30245986719564266
-0.47631335221875304	0.28203162200562315
-0.47625231706250304	0.26037298115620744
-0.47619128190625304	0.2375769208375306
-0.47613024675000304	0.2137414271752878
-0.47606921159375304	0.18896890414828596
-0.47600817643750304	0.16336582809802874
-0.47594714128125304	0.13704235308242563
-0.47588610612500304	0.11011165959527242
-0.47582507096875304	0.08268967526766818
-0.47576403581250304	0.05489445050272629
-0.47570300065625304	0.026845662313563782
-0.47564196550000304	-0.0013357866507793172
-0.47558093034375304	-0.029528463590311634
-0.47551989518750304	-0.05761078475954835
-0.47545886003125304	-0.08546154983672638
-0.47539782487500304	-0.11296057265817777
-0.47533678971875304	-0.13998904054598635
-0.47527575456250304	-0.1664301452763192
-0.47521471940625304	-0.19216954329494867
-0.47515368425000304	-0.21709578838560023
-0.47509264909375304	-0.24110094724785716
-0.47503161393750304	-0.2640809524276016
-0.47497057878125304	-0.28593603179689636
-0.47490954362500304	-0.30657126159461584
-0.47484850846875304	-0.3258969029892633
-0.47478747331250304	-0.34382869387609216
-0.47472643815625304	-0.36028843187636034
-0.47466540300000304	-0.3752041463240202
-0.47460436784375304	-0.3885103881229785
-0.47454333268750304	-0.40014870901542604
-0.47448229753125304	-0.4100676843847092
-0.47442126237500304	-0.4182232790028283
-0.47436022721875304	-0.42457902836967554
-0.47429919206250304	-0.42910612049673963
-0.47423815690625304	-0.43178363221383004
-0.47417712175000304	-0.4325985423894099
-0.47411608659375304	-0.4315458173673018
-0.47405505143750304	-0.4286284571639277
-0.47399401628125304	-0.42385746467849034
-0.47393298112500304	-0.4172517956111586
-0.47387194596875304	-0.4088383172721683
-0.47381091081250304	-0.3986516679314261
-0.47374987565625304	-0.38673411290158766
-0.47368884050000304	-0.37313539287973063
-0.47362780534375304	-0.3579124915435107
-0.47356677018750304	-0.34112939797130126
-0.47350573503125304	-0.3228568507395385
-0.47344469987500304	-0.30317203009483623
-0.47338366471875304	-0.2821582177007933
-0.47332262956250304	-0.25990448308663605
-0.47326159440625304	-0.23650523630892903
-0.47320055925000304	-0.21205989420344823
-0.47313952409375304	-0.18667246901513984
-0.47307848893750304	-0.16045097999624786
-0.47301745378125304	-0.13350717841749682
-0.47295641862500304	-0.10595604849784088
-0.47289538346875304	-0.0779150809650877
-0.47283434831250304	-0.04950408375984212
-0.47277331315625304	-0.020844573401232032
-0.47271227800000304	0.00794097266167485
-0.47265124284375304	0.03672928306245555
-0.47259020768750304	0.0653970148801567
-0.47252917253125304	0.09382138303996466
-0.47246813737500304	0.12188041897833976
-0.47240710221875304	0.14945368943755488
-0.47234606706250304	0.17642284256363355
-0.47228503190625304	0.2026719153019378
-0.47222399675000304	0.22808802650790586
-0.47216296159375304	0.2525618298764306
-0.47210192643750304	0.2759878702919852
-0.47204089128125304	0.298265157722016
-0.47197985612500304	0.3192975806004481
-0.47191882096875304	0.33899430034817457
-0.47185778581250304	0.35727011445174534
-0.47179675065625304	0.3740459011110433
-0.47173571550000304	0.3892489301683389
-0.47167468034375304	0.4028131298805527
-0.47161364518750304	0.4146794385864772
-0.47155261003125304	0.4247960637119498
-0.47149157487500304	0.4331186659617923
-0.47143053971875304	0.43961054534083416
-0.47136950456250304	0.4442428890788326
-0.47130846940625304	0.4469948139927671
-0.47124743425000304	0.44785346988661606
-0.47118639909375304	0.44681415634010135
-0.47112536393750304	0.443880293452434
-0.47106432878125304	0.4390634204180623
-0.47100329362500304	0.4323831660233133
-0.47094225846875304	0.42386717874783625
-0.47088122331250304	0.41355095511231943
-0.47082018815625304	0.4014777701651178
-0.47075915300000304	0.38769844188945324
-0.47069811784375304	0.3722711175906654
-0.47063708268750304	0.35526107476993235
-0.47057604753125304	0.33674036915410427
-0.47051501237500304	0.3167876230500264
