Time	Frequency
-0.5000363140312487	-0.0015776166708069126
-0.4999752788749987	0.020087906427789147
-0.4999142437187487	0.041698238126402075
-0.4998532085624987	0.06318152786525051
-0.4997921734062487	0.08446625379098723
-0.4997311382499987	0.10548157105931043
-0.4996701030937487	0.12615746506286799
-0.4996090679374987	0.14642499449430652
-0.4995480327812487	0.16621656810583135
-0.4994869976249987	0.1854660654053075
-0.4994259624687487	0.20410919159163804
-0.4993649273124987	0.22208359507416942
-0.4993038921562487	0.2393290450913524
-0.4992428569999987	0.2557877619177255
-0.4991818218437487	0.2714044836685548
-0.4991207866874987	0.28612670992035916
-0.4990597515312487	0.29990485992237453
-0.4989987163749987	0.3126924262758114
-0.4989376812187487	0.3244461877926828
-0.4988766460624987	0.3351262464199196
-0.4988156109062487	0.34469627016390947
-0.4987545757499987	0.35312357088600965
-0.4986935405937487	0.36037916163203365
-0.4986325054374987	0.366437971384342
-0.4985714702812487	0.37127881468257007
-0.4985104351249987	0.37488452327269195
-0.4984493999687487	0.37724201844888394
-0.4983883648124987	0.3783422922391588
-0.4983273296562487	0.37818051129055474
-0.4982662944999987	0.37675599351153627
-0.4982052593437487	0.3740722133207804
-0.4981442241874987	0.37013681957140865
-0.4980831890312487	0.3649615832363772
-0.4980221538749987	0.35856237824073817
-0.4979611187187487	0.3509591284486395
-0.4979000835624987	0.3421757379611693
-0.4978390484062487	0.3322400298743535
-0.4977780132499987	0.32118363423591795
-0.4977169780937487	0.3090419112160786
-0.4976559429374987	0.2958538225726533
-0.4975949077812487	0.281661796860265
-0.4975338726249987	0.26651162348977364
-0.4974728374687487	0.25045226533563253
-0.4974118023124987	0.23353572160044853
-0.4973507671562487	0.21581686357223562
-0.4972897319999987	0.19735323980521552
-0.4972286968437487	0.178204883418835
-0.4971676616874987	0.15843416089510878
-0.4971066265312487	0.13810548722432772
-0.4970455913749987	0.11728518517746298
-0.4969845562187487	0.09604129781086718
-0.4969235210624987	0.07444317637223655
-0.4968624859062487	0.05256154034540623
-0.4968014507499987	0.030468018049003023
-0.4967404155937487	0.00823494116166336
-0.4966793804374987	-0.014064713811136463
-0.4966183452812487	-0.036357849061357694
-0.4965573101249987	-0.05857122803373401
-0.4964962749687487	-0.08063187591228425
-0.4964352398124987	-0.102467281017282
-0.4963742046562487	-0.12400555637615916
-0.4963131694999987	-0.145175831364057
-0.4962521343437487	-0.1659083388515375
-0.4961910991874987	-0.18613472087705554
-0.4961300640312487	-0.20578823222083203
-0.4960690288749987	-0.2248039919018121
-0.4960079937187487	-0.2431191631933549
-0.4959469585624987	-0.2606731346834823
-0.4958859234062487	-0.2774078329528266
-0.4958248882499987	-0.29326778634544715
-0.4957638530937487	-0.30820037598263117
-0.4957028179374987	-0.32215601972173624
-0.4956417827812487	-0.3350882978540695
-0.4955807476249987	-0.3469541467502954
-0.4955197124687487	-0.3577139469289129
-0.4954586773124987	-0.3673317549307756
-0.4953976421562487	-0.3757753093635137
-0.4953366069999987	-0.383016184808215
-0.4952755718437487	-0.3890299679378913
-0.4952145366874987	-0.3937961843022217
-0.4951535015312487	-0.3972984822078801
-0.4950924663749987	-0.3995246866034664
-0.4950314312187487	-0.4004667617086604
-0.4949703960624987	-0.40012091892508
-0.4949093609062487	-0.39848761082539225
-0.4948483257499987	-0.3955714998403348
-0.4947872905937487	-0.3913814857250039
-0.4947262554374987	-0.3859306617194737
-0.4946652202812487	-0.3792362670601803
-0.4946041851249987	-0.3713196438674947
-0.4945431499687487	-0.3622061664466148
-0.4944821148124987	-0.3519251478991254
-0.4944210796562487	-0.3405097647907114
-0.4943600444999987	-0.32799694279633157
-0.4942990093437487	-0.3144272057715765
-0.4942379741874987	-0.29984461199659096
-0.4941769390312487	-0.2842965444257719
-0.4941159038749987	-0.267833572095956
-0.4940548687187487	-0.2505093350918532
-0.4939938335624987	-0.23238027269683525
-0.4939327984062487	-0.2135055325366382
-0.4938717632499987	-0.19394673242690405
-0.4938107280937487	-0.17376773489300243
-0.4937496929374987	-0.15303450993422424
-0.4936886577812487	-0.1318148220639371
-0.4936276226249987	-0.11017810126043034
-0.4935665874687487	-0.08819514175931048
-0.4935055523124987	-0.06593791846871576
-0.4934445171562487	-0.043479326789714064
-0.4933834819999987	-0.020892896689148954
-0.4933224468437487	0.0017472946564728387
-0.4932614116874987	0.02436710678869125
-0.4932003765312487	0.046892373022159844
-0.4931393413749987	0.06924918631554072
-0.4930783062187487	0.09136430761855172
-0.4930172710624987	0.11316514607237614
-0.4929562359062487	0.13458020536186785
-0.4928952007499987	0.1555392701973582
-0.4928341655937487	0.17597352838960592
-0.4927731304374987	0.19581599835427502
-0.4927120952812487	0.2150015655705667
-0.4926510601249987	0.23346729433785574
-0.4925900249687487	0.25115266497004246
-0.4925289898124987	0.26799964640985435
-0.4924679546562487	0.2839530475502597
-0.4924069194999987	0.29896057863339986
-0.4923458843437487	0.31297309967515935
-0.4922848491874987	0.3259447462446433
-0.4922238140312487	0.3378330811928404
-0.4921627788749987	0.3485992893637893
-0.4921017437187487	0.3582082121355159
-0.4920407085624987	0.3666285721721656
-0.4919796734062487	0.37383299558504235
-0.4919186382499987	0.3797981387719989
-0.4918576030937487	0.38450478877029665
-0.4917965679374987	0.3879378661492358
-0.4917355327812487	0.39008654349247124
-0.4916744976249987	0.3909442436297705
-0.4916134624687487	0.3905086669756467
-0.4915524273124987	0.3887818169842736
-0.4914913921562487	0.38576997829583176
-0.4914303569999987	0.3814837028439562
-0.4913693218437487	0.37593778168631026
-0.4913082866874987	0.36915118513304723
-0.4912472515312487	0.36114701714894937
-0.4911862163749987	0.3519524219831442
-0.4911251812187487	0.34159851357154974
-0.4910641460624987	0.33012025791194044
-0.4910031109062487	0.31755636047498625
-0.4909420757499987	0.30394916950086226
-0.4908810405937487	0.2893444522436885
-0.4908200054374987	0.27379137518103214
-0.4907589702812487	0.25734221744081054
-0.4906979351249987	0.2400522331513374
-0.4906368999687487	0.221979566671588
-0.4905758648124987	0.20318486946411307
-0.4905148296562487	0.18373127070591055
-0.4904537944999987	0.16368411400153382
-0.4903927593437487	0.1431106737345254
-0.4903317241874987	0.12208002515943034
-0.4902706890312487	0.10066278662480461
-0.4902096538749987	0.07893085180350506
-0.4901486187187487	0.05695716346071494
-0.4900875835624987	0.034815528853145795
-0.4900265484062487	0.012580278328538724
-0.4899655132499987	-0.009673924909534325
-0.4899044780937487	-0.031872302631653145
-0.4898434429374987	-0.05394032679210906
-0.4897824077812487	-0.07580382950445885
-0.4897213726249987	-0.09738932023931775
-0.4896603374687487	-0.11862428993349741
-0.4895993023124987	-0.13943729658460535
-0.4895382671562487	-0.15975835727545265
-0.4894772319999987	-0.17951912837538211
-0.4894161968437487	-0.19865307145817307
-0.4893551616874987	-0.21709579020789718
-0.4892941265312487	-0.23478517839800817
-0.4892330913749987	-0.2516616117266674
-0.4891720562187487	-0.2676681905131531
-0.4891110210624987	-0.28275094760596614
-0.4890499859062487	-0.2968589453060695
-0.4889889507499987	-0.30994452520876015
-0.4889279155937487	-0.3219634717477093
-0.4888668804374987	-0.3328750784139937
-0.4888058452812487	-0.34264237704775263
-0.4887448101249987	-0.35123223802921844
-0.4886837749687487	-0.3586154318365133
-0.4886227398124987	-0.36476679618164426
-0.4885617046562487	-0.3696653067579384
-0.4885006694999987	-0.37329409102375766
-0.4884396343437487	-0.375640584514724
-0.4883785991874987	-0.37669650154578804
-0.4883175640312487	-0.37645786295878814
-0.4882565288749987	-0.37492508645948097
-0.4881954937187487	-0.37210289325538026
-0.4881344585624987	-0.368000354917558
-0.4880734234062487	-0.3626308484256142
-0.4880123882499987	-0.3560120058869624
-0.4879513530937487	-0.34816567640839374
-0.4878903179374987	-0.33911782211905606
-0.4878292827812487	-0.3288984776150339
-0.4877682476249987	-0.31754161976186346
-0.4877072124687487	-0.3050850534132906
-0.4876461773124987	-0.2915703097712307
-0.4875851421562487	-0.2770425055369791
-0.4875241069999987	-0.26155015841512735
-0.4874630718437487	-0.2451450749382196
-0.4874020366874987	-0.22788215807442339
-0.4873410015312487	-0.2098192029669689
-0.4872799663749987	-0.19101675549402095
-0.4872189312187487	-0.17153783957591204
-0.4871578960624987	-0.1514478434060785
-0.4870968609062487	-0.13081421162589937
-0.4870358257499987	-0.10970622229220911
-0.4869747905937487	-0.08819489361866474
-0.4869137554374987	-0.06635252093688092
-0.4868527202812487	-0.044252628075621504
-0.4867916851249987	-0.02196966341290524
-0.4867306499687487	0.00042135550299363523
-0.4866696148124987	0.022844865041509406
-0.4866085796562487	0.04522526682374558
-0.4865475444999987	0.06748701507433026
-0.4864865093437487	0.08955485015660877
-0.4864254741874987	0.1113542340163199
-0.4863644390312487	0.13281139130212216
-0.4863034038749987	0.1538536521651491
-0.4862423687187487	0.1744097669683735
-0.4861813335624987	0.19440997747811792
-0.4861202984062487	0.21378637438787151
-0.4860592632499987	0.23247316004543267
-0.4859982280937487	0.2504067046535158
-0.4859371929374987	0.2675259292829145
-0.4858761577812487	0.283772443596133
-0.4858151226249987	0.29909072095041705
-0.4857540874687487	0.31342833566116385
-0.4856930523124987	0.3267360924126062
-0.4856320171562487	0.33896825389201524
-0.4855709819999987	0.35008262667623763
-0.4855099468437487	0.36004075141034847
-0.4854489116874987	0.36880803514232824
-0.4853878765312487	0.3763538430561703
-0.4853268413749987	0.3826516075052474
-0.4852658062187487	0.38767894660655217
-0.4852047710624987	0.39141773622669385
-0.4851437359062487	0.3938541209101113
-0.4850827007499987	0.39497864104456687
-0.4850216655937487	0.3947862290515719
-0.4849606304374987	0.3932762028517854
-0.4848995952812487	0.390452326422736
-0.4848385601249987	0.3863227680854952
-0.4847775249687487	0.3809000638761967
-0.4847164898124987	0.37420111478448215
-0.4846554546562487	0.3662471051771464
-0.4845944194999987	0.357063431484046
-0.4845333843437487	0.34667965042815113
-0.4844723491874987	0.3351293466926454
-0.4844113140312487	0.32245003336090133
-0.4843502788749987	0.3086830657386362
-0.4842892437187487	0.29387342695668933
-0.4842282085624987	0.27806964056111294
-0.4841671734062487	0.2613236423795521
-0.4841061382499987	0.24369046365330302
-0.4840451030937487	0.22522822622121297
-0.4839840679374987	0.20599785111837912
-0.4839230327812487	0.1860628311010147
-0.4838619976249987	0.16548911362164817
-0.4838009624687487	0.14434478734811565
-0.4837399273124987	0.12269993333547749
-0.4836788921562487	0.10062629668019447
-0.4836178569999987	0.07819716497148378
-0.4835568218437487	0.055487041657878544
-0.4834957866874987	0.032571345388954995
-0.4834347515312487	0.009526368069681495
-0.4833737163749987	-0.013571227939420344
-0.4833126812187487	-0.036644590930694124
-0.4832516460624987	-0.059616744360556403
-0.4831906109062487	-0.08241118828679724
-0.4831295757499987	-0.10495189965885542
-0.4830685405937487	-0.1271636057313924
-0.4830075054374987	-0.14897223596167974
-0.4829464702812487	-0.17030488056663334
-0.4828854351249987	-0.19109029431060276
-0.4828243999687487	-0.21125900707179499
-0.4827633648124987	-0.23074352015412328
-0.4827023296562487	-0.24947868476703894
-0.4826412944999987	-0.2674017749228319
-0.4825802593437487	-0.2844527568577947
-0.4825192241874987	-0.3005745200662184
-0.4824581890312487	-0.31571303788026733
-0.4823971538749987	-0.3298175147899017
-0.4823361187187487	-0.3428406540299036
-0.4822750835624987	-0.35473874546024575
-0.4822140484062487	-0.36547179912903716
-0.4821530132499987	-0.37500377625237047
-0.4820919780937487	-0.3833025936426777
-0.4820309429374987	-0.39034032227385296
-0.4819699077812487	-0.39609325644222254
-0.4819088726249987	-0.40054195971734735
-0.4818478374687487	-0.4036714076434278
-0.4817868023124987	-0.4054709538279226
-0.4817257671562487	-0.4059344355712257
-0.4816647319999987	-0.40506017354831686
-0.4816036968437487	-0.40285095824602546
-0.4815426616874987	-0.39931407950248204
-0.4814816265312487	-0.394461283040044
-0.4814205913749987	-0.3883087285450831
-0.4813595562187487	-0.38087695109810554
-0.4812985210624987	-0.37219079791609205
-0.4812374859062487	-0.36227930808453107
-0.4811764507499987	-0.35117567807763383
-0.4811154155937487	-0.3389171043897176
-0.4810543804374987	-0.3255446560448181
-0.4809933452812487	-0.31110320501658684
-0.4809323101249987	-0.2956411695159408
-0.4808712749687487	-0.27921044124569194
-0.4808102398124987	-0.2618662135091664
-0.4807492046562487	-0.2436666746062504
-0.4806881694999987	-0.22467299110259295
-0.4806271343437487	-0.20494899612832493
-0.4805660991874987	-0.1845609296686065
-0.4805050640312487	-0.16357737152468577
-0.4804440288749987	-0.14206885751203951
-0.4803829937187487	-0.12010772193383047
-0.4803219585624987	-0.09776785686961707
-0.4802609234062487	-0.07512438995250877
-0.4801998882499987	-0.05225354394267591
-0.4801388530937487	-0.029232287067850984
-0.4800778179374987	-0.006138109370607977
-0.4800167827812487	0.01695123002228707
-0.4799557476249987	0.03995800038224966
-0.4798947124687487	0.06280470008191683
-0.4798336773124987	0.08541438852813235
-0.4797726421562487	0.10771092095414199
-0.4797116069999987	0.12961915904789878
-0.4796505718437487	0.15106530390092412
-0.4795895366874987	0.1719771078697386
-0.4795285015312487	0.19228408155089965
-0.4794674663749987	0.21191781383900635
-0.4794064312187487	0.2308121436318608
-0.4793453960624987	0.24890338784848245
-0.4792843609062487	0.26613060632942065
-0.4792233257499987	0.28243574398084903
-0.4791622905937487	0.2977638681658187
-0.4791012554374987	0.31206335676008756
-0.4790402202812487	0.3252860348040098
-0.4789791851249987	0.33738741179561116
-0.4789181499687487	0.3483267622814172
-0.4788571148124987	0.35806727158421253
-0.4787960796562487	0.36657623827367253
-0.4787350444999987	0.37382509358205357
-0.4786740093437487	0.3797895344414974
-0.4786129741874987	0.3844496311709789
-0.4785519390312487	0.38778986553125383
-0.4784909038749987	0.3897991947307479
-0.4784298687187487	0.3904710901795967
-0.4783688335624987	0.38980356958099194
-0.4783077984062487	0.38779919488581893
-0.4782467632499987	0.38446506163952315
-0.4781857280937487	0.3798127954930498
-0.4781246929374987	0.37385849744775196
-0.4780636577812487	0.3666226915979834
-0.4780026226249987	0.3581302715947455
-0.4779415874687487	0.3484104006351462
-0.4778805523124987	0.3374964239106721
-0.4778195171562487	0.32542575648093097
-0.4777584819999987	0.3122397529474119
-0.4776974468437487	0.29798357953012194
-0.4776364116874987	0.2827060376162632
-0.4775753765312487	0.2664594358694947
-0.4775143413749987	0.2492993906030527
-0.4774533062187487	0.23128461251767574
-0.4773922710624987	0.2124767980762658
-0.4773312359062487	0.19294030395420425
-0.4772702007499987	0.1727419939051098
-0.4772091655937487	0.1519510554190307
-0.4771481304374987	0.13063864502728018
-0.4770870952812487	0.10887775539778272
-0.4770260601249987	0.08674294033896929
-0.4769650249687487	0.06431001100271723
-0.4769039898124987	0.04165585439598851
-0.4768429546562487	0.018858126163717206
-0.4767819194999987	-0.0040050332237515154
-0.4767208843437487	-0.026855167849975176
-0.4766598491874987	-0.0496138966948995
-0.4765988140312487	-0.07220314704836131
-0.4765377788749987	-0.09454528100641645
-0.4764767437187487	-0.11656359642117838
-0.4764157085624987	-0.13818245925684172
-0.4763546734062487	-0.15932743734379323
-0.4762936382499987	-0.17992586356666918
-0.4762326030937487	-0.19990683779821808
-0.4761715679374987	-0.21920145568842966
-0.4761105327812487	-0.23774328387544647
-0.4760494976249987	-0.255468327675825
-0.4759884624687487	-0.27231534553201664
-0.4759274273124987	-0.2882261671431283
-0.4758663921562487	-0.3031456946184173
-0.4758053569999987	-0.317022223231309
-0.4757443218437487	-0.32980762909660594
-0.4756832866874987	-0.34145742121009537
-0.4756222515312487	-0.3519310397950971
-0.4755612163749987	-0.3611918780533006
-0.4755001812187487	-0.36920745527956295
-0.4754391460624987	-0.3759495848409524
-0.4753781109062487	-0.3813943424337927
-0.4753170757499987	-0.3855222757049226
-0.4752560405937487	-0.38831842249588994
-0.4751950054374987	-0.38977233359215996
-0.4751339702812487	-0.3898781740384193
-0.4750729351249987	-0.38863470182975374
-0.4750118999687487	-0.3860452809568184
-0.4749508648124987	-0.38211789149860176
-0.4748898296562487	-0.37686507890446935
-0.4748287944999987	-0.3703039379512363
-0.4747677593437487	-0.36245603961717
-0.4747067241874987	-0.3533473601997566
-0.4746456890312487	-0.34300822429352484
-0.4745846538749987	-0.33147314570445513
-0.4745236187187487	-0.31878078048682756
-0.4744625835624987	-0.30497374577639047
-0.4744015484062487	-0.2900984915649289
-0.4743405132499987	-0.2742051727440564
-0.4742794780937487	-0.25734740982537135
-0.4742184429374987	-0.23958220776359904
-0.4741574077812487	-0.22096967047450503
-0.4740963726249987	-0.20157283007241594
-0.4740353374687487	-0.18145748939770745
-0.4739743023124987	-0.16069188976055657
-0.4739132671562487	-0.13934655479438743
-0.4738522319999987	-0.11749407065674129
-0.4737911968437487	-0.09520875920470975
-0.4737301616874987	-0.07256646401322686
-0.4736691265312487	-0.049644368278988014
-0.4736080913749987	-0.026520560502359753
-0.4735470562187487	-0.0032739267344926836
-0.4734860210624987	0.02001613137223809
-0.4734249859062487	0.043270159515930974
-0.4733639507499987	0.06640859975138638
-0.4733029155937487	0.08935234263840519
-0.4732418804374987	0.11202290600221275
-0.4731808452812487	0.134342598120902
-0.4731198101249987	0.15623496338012538
-0.4730587749687487	0.1776249069218193
-0.4729977398124987	0.1984390518368272
-0.4729367046562487	0.21860585270028443
-0.4728756694999987	0.23805603146783774
-0.4728146343437487	0.25672265749525497
-0.4727535991874987	0.27454140218897033
-0.4726925640312487	0.29145090606825275
-0.4726315288749987	0.30739272921436855
-0.4725704937187487	0.32231180860847214
-0.4725094585624987	0.3361565118676196
-0.4724484234062487	0.34887879008432743
-0.4723873882499987	0.3604344972834413
-0.4723263530937487	0.3707833562716995
-0.4722653179374987	0.37988920301779844
-0.4722042827812487	0.3877201646961957
-0.4721432476249987	0.3942485968822883
-0.4720822124687487	0.39945134815989003
-0.4720211773124987	0.4033098079698732
-0.4719601421562487	0.4058098571341639
-0.4718991069999987	0.40694208252434527
-0.4718380718437487	0.4067017168057222
-0.4717770366874987	0.4050886531476942
-0.4717160015312487	0.4021074974643233
-0.4716549663749987	0.3977675257750255
-0.4715939312187487	0.39208265215116017
-0.4715328960624987	0.38507139117763073
-0.4714718609062487	0.3767568100126998
-0.4714108257499987	0.3671664227683232
-0.4713497905937487	0.3563321261838354
-0.4712887554374987	0.3442900801896691
-0.4712277202812487	0.3310805809242941
-0.4711666851249987	0.31674795719851223
-0.4711056499687487	0.3013403584430188
-0.4710446148124987	0.2849096582428072
-0.4709835796562487	0.2675112710870302
-0.4709225444999987	0.2492038706674242
-0.4708615093437487	0.2300493565695073
-0.4708004741874987	0.2101124949873687
-0.4707394390312487	0.1894607489929533
-0.4706784038749987	0.16816412198949654
-0.4706173687187487	0.1462947742457429
-0.4705563335624987	0.12392690679028891
-0.4704952984062487	0.10113644122228937
-0.4704342632499987	0.07800078636297854
-0.4703732280937487	0.054598549822854295
-0.4703121929374987	0.031009292069922954
-0.4702511577812487	0.0073132637748151074
-0.4701901226249987	-0.0164089119476564
-0.4701290874687487	-0.040076474476009205
-0.4700680523124987	-0.06360882518043039
-0.4700070171562487	-0.08692577882467166
-0.4699459819999987	-0.10994786925168416
-0.4698849468437487	-0.13259661091730662
-0.4698239116874987	-0.15479475599729864
-0.4697628765312487	-0.17646657576305524
-0.4697018413749987	-0.1975381072432138
