Time	Frequency
-0.5000259871562491	0.3544549436990109
-0.49996495199999913	0.35907597658936236
-0.49990391684374913	0.3626334868598567
-0.49984288168749913	0.3651169448218322
-0.49978184653124913	0.3665190135025063
-0.49972081137499913	0.36683557525695476
-0.49965977621874913	0.3660656984411978
-0.49959874106249913	0.36421169631652534
-0.49953770590624913	0.36127908370172085
-0.49947667074999913	0.35727657635149307
-0.49941563559374913	0.35221606786169274
-0.49935460043749913	0.34611259409333434
-0.49929356528124913	0.33898427987180646
-0.49923253012499913	0.3308523065001531
-0.49917149496874913	0.32174084029789835
-0.49911045981249913	0.3116769392015534
-0.49904942465624913	0.300690530325225
-0.49898838949999913	0.2888142672568964
-0.49892735434374913	0.2760834385216246
-0.49886631918749913	0.2625359329546521
-0.49880528403124913	0.24821201935256723
-0.49874424887499913	0.23315430681528387
-0.49868321371874913	0.21740763195871107
-0.49862217856249913	0.2010188108144534
-0.49856114340624913	0.1840366697675308
-0.49850010824999913	0.16651177197437017
-0.49843907309374913	0.14849627430198967
-0.49837803793749913	0.13004390027169754
-0.49831700278124913	0.1112096061763515
-0.49825596762499913	0.09204952541046746
-0.49819493246874913	0.0726208195538987
-0.49813389731249913	0.052981394397190795
-0.49807286215624913	0.03318985337174451
-0.49801182699999913	0.013305291122815465
-0.49795079184374913	-0.006612978588450296
-0.49788975668749913	-0.02650545509556688
-0.49782872153124913	-0.04631269827744381
-0.49776768637499913	-0.06597554150153792
-0.49770665121874913	-0.08543517991899126
-0.49764561606249913	-0.10463342517247046
-0.49758458090624913	-0.12351283905247401
-0.49752354574999913	-0.14201689400056883
-0.49746251059374913	-0.1600901887600608
-0.49740147543749913	-0.17767855936823954
-0.49734044028124913	-0.19472927773954032
-0.49727940512499913	-0.2111911975645916
-0.49721836996874913	-0.22701490171695962
-0.49715733481249913	-0.24215286485901413
-0.49709629965624913	-0.2565595769375841
-0.49703526449999913	-0.27019169730279746
-0.49697422934374913	-0.2830081610566948
-0.49691319418749913	-0.29497034473400513
-0.49685215903124913	-0.30604213758767124
-0.49679112387499913	-0.31619006089155915
-0.49673008871874913	-0.3253834023375677
-0.49666905356249913	-0.33359426829142386
-0.49660801840624913	-0.34079766613528084
-0.49654698324999913	-0.34697163584765905
-0.49648594809374913	-0.35209725199767566
-0.49642491293749913	-0.35615869883697104
-0.49636387778124913	-0.3591433711525549
-0.49630284262499913	-0.3610418144360638
-0.49624180746874913	-0.36184784910759926
-0.49618077231249913	-0.36155855153011857
-0.49611973715624913	-0.3601742373771388
-0.49605870199999913	-0.3576985179218572
-0.49599766684374913	-0.3541382536060854
-0.49593663168749913	-0.3495035364739124
-0.49587559653124913	-0.34380768455986865
-0.49581456137499913	-0.3370671801473521
-0.49575352621874913	-0.3293016289713936
-0.49569249106249913	-0.320533717823935
-0.49563145590624913	-0.31078912224521593
-0.49557042074999913	-0.3000964558931934
-0.49550938559374913	-0.2884871693116563
-0.49544835043749913	-0.27599547809186276
-0.49538731528124913	-0.26265822799479965
-0.49532628012499913	-0.24851482403483846
-0.49526524496874913	-0.2336071031823574
-0.49520420981249913	-0.2179791759384612
-0.49514317465624913	-0.20167735698811806
-0.49508213949999913	-0.18474998862418757
-0.49502110434374913	-0.16724729310798606
-0.49496006918749913	-0.14922124062189054
-0.49489903403124913	-0.13072541682280933
-0.49483799887499913	-0.11181478967382169
-0.49477696371874913	-0.09254563095315331
-0.49471592856249913	-0.07297531962504859
-0.49465489340624913	-0.05316210459306647
-0.49459385824999913	-0.03316507017461603
-0.49453282309374913	-0.013043836321039799
-0.49447178793749913	0.007141601126038184
-0.49441075278124913	0.027330942819363584
-0.49434971762499913	0.04746392540450715
-0.49428868246874913	0.06748040126412991
-0.49422764731249913	0.08732048453833524
-0.49416661215624913	0.10692488163027965
-0.49410557699999913	0.12623489225638784
-0.49404454184374913	0.1451926784731891
-0.49398350668749913	0.16374147299751965
-0.49392247153124913	0.18182563831713253
-0.49386143637499913	0.1993909216898219
-0.49380040121874913	0.21638461155013305
-0.49373936606249913	0.2327556380888223
-0.49367833090624913	0.2484547823600083
-0.49361729574999913	0.26343482742017027
-0.49355626059374913	0.277650629657539
-0.49349522543749913	0.29105936034396696
-0.49343419028124913	0.30362053937274935
-0.49337315512499913	0.3152962097977856
-0.49331211996874913	0.32605106126806416
-0.49325108481249913	0.33585246420257686
-0.49319004965624913	0.3446706857441501
-0.49312901449999913	0.352478865058783
-0.49306797934374913	0.35925315508312355
-0.49300694418749913	0.3649728190847359
-0.49294590903124913	0.3696202079699428
-0.49288487387499913	0.3731808974095147
-0.49282383871874913	0.3756437148852055
-0.49276280356249913	0.3770007295377238
-0.49270176840624913	0.37724732759957547
-0.49264073324999913	0.3763822226261338
-0.49257969809374913	0.374407423376306
-0.49251866293749913	0.3713282713647504
-0.49245762778124913	0.36715341499642673
-0.49239659262499913	0.36189476366559103
-0.49233555746874913	0.35556748667586635
-0.49227452231249913	0.34818994858066293
-0.49221348715624913	0.33978365649302494
-0.49215245199999913	0.3303732116489264
-0.49209141684374913	0.31998621657656534
-0.49203038168749913	0.30865321456304573
-0.49196934653124913	0.29640758740442996
-0.49190831137499913	0.2832854535877138
-0.49184727621874913	0.2693255750035534
-0.49178624106249913	0.25456923401540404
-0.49172520590624913	0.23906011357056853
-0.49166417074999913	0.22284414213366804
-0.49160313559374913	0.2059694294896972
-0.49154210043749913	0.18848604075221495
-0.49148106528124913	0.17044584817355285
-0.49142003012499913	0.15190251316561165
-0.49135899496874913	0.13291112481237602
-0.49129795981249913	0.11352815028965184
-0.49123692465624913	0.09381131759447718
-0.49117588949999913	0.07381928476513269
-0.49111485434374913	0.05361160583718324
-0.49105381918749913	0.033248515941468666
-0.49099278403124913	0.012790693236173108
-0.49093174887499913	-0.007700863468707732
-0.49087071371874913	-0.02816498784613909
-0.49080967856249913	-0.048540662976736586
-0.49074864340624913	-0.06876704507756584
-0.49068760824999913	-0.08878370043034513
-0.49062657309374913	-0.10853091867688243
-0.49056553793749913	-0.12794961894211038
-0.49050450278124913	-0.14698180720777845
-0.49044346762499913	-0.16557058992923562
-0.49038243246874913	-0.1836603514119457
-0.49032139731249913	-0.201197022320019
-0.49026036215624913	-0.21812807941153675
-0.49019932699999913	-0.23440292546638752
-0.49013829184374913	-0.24997279349176052
-0.49007725668749913	-0.26479106907426686
-0.49001622153124913	-0.27881343051499297
-0.48995518637499913	-0.29199780765675704
-0.48989415121874913	-0.30430474642596816
-0.48983311606249913	-0.3156973731341208
-0.48977208090624913	-0.3261415153218114
-0.48971104574999913	-0.33560589677168967
-0.48965001059374913	-0.3440621484238606
-0.48958897543749913	-0.351484897035908
-0.48952794028124913	-0.3578519053527222
-0.48946690512499913	-0.3631440882257035
-0.48940586996874913	-0.36734556614636565
-0.48934483481249913	-0.37044376661136674
-0.48928379965624913	-0.37242940297960525
-0.48922276449999913	-0.37329654190158207
-0.48916172934374913	-0.37304261337884803
-0.48910069418749913	-0.37166840955164915
-0.48903965903124913	-0.36917810440973226
-0.48897862387499913	-0.3655792200397399
-0.48891758871874913	-0.3608826220448933
-0.48885655356249913	-0.3551024829487423
-0.48879551840624913	-0.3482562368461315
-0.48873448324999913	-0.3403645353260549
-0.48867344809374913	-0.3314511857401035
-0.48861241293749913	-0.321543067775811
-0.48855137778124913	-0.31067008541567387
-0.48849034262499913	-0.2988650312603455
-0.48842930746874913	-0.28616353533918665
-0.48836827231249913	-0.27260394727618886
-0.48830723715624913	-0.25822717175543825
-0.48824620199999913	-0.2430766386134624
-0.48818516684374913	-0.22719809229277468
-0.48812413168749913	-0.21063949965623072
-0.48806309653124913	-0.19345088500370156
-0.48800206137499913	-0.17568418164064417
-0.48794102621874913	-0.15739311474494272
-0.48787999106249913	-0.13863294098410492
-0.48781895590624913	-0.11946044306678404
-0.48775792074999913	-0.09993358021150348
-0.48769688559374913	-0.08011141963452197
-0.48763585043749913	-0.06005402228632012
-0.48757481528124913	-0.03982200296256964
-0.48751378012499913	-0.019476703249512124
-0.48745274496874913	0.0009202581232303905
-0.48739170981249913	0.02130712977281205
-0.48733067465624913	0.04162205198287282
-0.48726963949999913	0.06180348875596922
-0.48720860434374913	0.08179018962947592
-0.48714756918749913	0.10152153916225971
-0.48708653403124913	0.12093764521153573
-0.48702549887499913	0.13997951347157128
-0.48696446371874913	0.15858937163674605
-0.48690342856249913	0.17671058978893364
-0.48684239340624913	0.19428808923895827
-0.48678135824999913	0.2112684421707819
-0.48672032309374913	0.2275998805743569
-0.48665928793749913	0.24323272261320283
-0.48659825278124913	0.25811931555111767
-0.48653721762499913	0.27221422530746714
-0.48647618246874913	0.28547445468076643
-0.48641514731249913	0.297859481675447
-0.48635411215624913	0.30933142850688455
-0.48629307699999913	0.3198551484682754
-0.48623204184374913	0.32939840213102894
-0.48617100668749913	0.33793185088709315
-0.48610997153124913	0.3454292217015067
-0.48604893637499913	0.351867402371574
-0.48598790121874913	0.3572264228774934
-0.48592686606249913	0.3614896206698805
-0.48586583090624913	0.3646436268431159
-0.48580479574999913	0.3666784251361596
-0.48574376059374913	0.3675874030644264
-0.48568272543749913	0.36736733536928295
-0.48562169028124913	0.36601843688265784
-0.48556065512499913	0.36354433487815085
-0.48549961996874913	0.3599520668528677
-0.48543858481249913	0.3552520701612876
-0.48537754965624913	0.3494581422173691
-0.48531651449999913	0.342587397971716
-0.48525547934374913	0.33466023565338315
-0.48519444418749913	0.32570025834349925
-0.48513340903124913	0.315734207718675
-0.48507237387499913	0.3047919104689004
-0.48501133871874913	0.2929061343014661
-0.48495030356249913	0.28011255332745627
-0.48488926840624913	0.266449602632707
-0.48482823324999913	0.2519583558384003
-0.48476719809374913	0.2366824470058961
-0.48470616293749913	0.22066789874524176
-0.48464512778124913	0.20396298047693603
-0.48458409262499913	0.18661810773141638
-0.48452305746874913	0.16868565290969129
-0.48446202231249913	0.15021976671457282
-0.48440098715624913	0.13127631064367007
-0.48433995199999913	0.11191254439256987
-0.48427891684374913	0.09218709545109591
-0.48421788168749913	0.07215969168771424
-0.48415684653124913	0.05189097305035695
-0.48409581137499913	0.031442436644292165
-0.48403477621874913	0.0108760516789317
-0.48397374106249913	-0.009745774685372332
-0.48391270590624913	-0.030360419967675058
-0.48385167074999913	-0.050905273664277474
-0.48379063559374913	-0.0713179344690771
-0.48372960043749913	-0.09153629446998143
-0.48366856528124913	-0.11149887139923441
-0.48360753012499913	-0.1311449291398213
-0.48354649496874913	-0.15041456832932887
-0.48348545981249913	-0.16924914628202167
-0.48342442465624913	-0.187591194166228
-0.48336338949999913	-0.2053847448990406
-0.48330235434374913	-0.2225755082728032
-0.48324131918749913	-0.23911092084851598
-0.48318028403124913	-0.254940437145
-0.48311924887499913	-0.2700156264748915
-0.48305821371874913	-0.2842902950012361
-0.48299717856249913	-0.2977206646830717
-0.48293614340624913	-0.3102655305420849
-0.48287510824999913	-0.32188630835228277
-0.48281407309374913	-0.33254721910842994
-0.48275303793749913	-0.3422154047950509
-0.48269200278124913	-0.35086096110201337
-0.48263096762499913	-0.35845710357391314
-0.48256993246874913	-0.3649802204711077
-0.48250889731249913	-0.3704099239103536
-0.48244786215624913	-0.37472916831291264
-0.48238682699999913	-0.3779242458001124
-0.48232579184374913	-0.37998486698294237
-0.48226475668749913	-0.38090418825597777
-0.48220372153124913	-0.3806788122289589
-0.48214268637499913	-0.37930883800713233
-0.48208165121874913	-0.37679782440367093
-0.48202061606249913	-0.37315280445367377
-0.48195958090624913	-0.36838426534695023
-0.48189854574999913	-0.36250609999024425
-0.48183751059374913	-0.35553559000585083
-0.48177647543749913	-0.34749334138824867
-0.48171544028124913	-0.3384032184993696
-0.48165440512499913	-0.3282922924122742
-0.48159336996874913	-0.317190748867617
-0.48153233481249913	-0.3051317813281253
-0.48147129965624913	-0.29215152625164525
-0.48141026449999913	-0.2782889408993863
-0.48134922934374913	-0.2635856430174763
-0.48128819418749913	-0.24808588703707019
-0.48122715903124913	-0.23183632501029433
-0.48116612387499913	-0.21488588755668933
-0.48110508871874913	-0.1972857438732195
-0.48104405356249913	-0.17908897237522237
-0.48098301840624913	-0.1603505118257266
-0.48092198324999913	-0.14112702790001663
-0.48086094809374913	-0.12147660051268624
-0.48079991293749913	-0.10145868895932765
-0.48073887778124913	-0.08113388893040323
-0.48067784262499913	-0.060563724685059446
-0.48061680746874913	-0.0398105438590664
-0.48055577231249913	-0.018937209381843595
-0.48049473715624913	0.0019929406793612503
-0.48043370199999913	0.022916446842471176
-0.48037266684374913	0.04376982593177161
-0.48031163168749913	0.06448970007628936
-0.48025059653124913	0.08501322915209462
-0.48018956137499913	0.10527800792978007
-0.48012852621874913	0.12522244174888628
-0.48006749106249913	0.14478592862990658
-0.48000645590624913	0.16390891866910437
-0.47994542074999913	0.182533262291262
-0.47988438559374913	0.20060225530909795
-0.47982335043749913	0.2180608848328651
-0.47976231528124913	0.2348559791887555
-0.47970128012499913	0.2509363420098429
-0.47964024496874913	0.2662529786764565
-0.47957920981249913	0.2807591740068591
-0.47951817465624913	0.29441067141817245
-0.47945713949999913	0.30716580567133456
-0.47939610434374913	0.3189856398461488
-0.47933506918749913	0.32983404810896955
-0.47927403403124913	0.33967788570665713
-0.47921299887499913	0.34848705681305436
-0.47915196371874913	0.35623456268013975
-0.47909092856249913	0.3628967164805328
-0.47902989340624913	0.36845306946508466
-0.47896885824999913	0.3728865494830115
-0.47890782309374913	0.3761835490743878
-0.47884678793749913	0.3783338675202895
-0.47878575278124913	0.37933083710853854
-0.47872471762499913	0.3791713070399293
-0.47866368246874913	0.37785563895788954
-0.47860264731249913	0.37538774398390373
-0.47854161215624913	0.3717750478885233
-0.47848057699999913	0.367028471955726
-0.47841954184374913	0.361162413013099
-0.47835850668749913	0.35419468948503563
-0.47829747153124913	0.3461464937955149
-0.47823643637499913	0.3370423247672201
-0.47817540121874913	0.32690992976071814
-0.47811436606249913	0.315780191926249
-0.47805333090624913	0.30368706018429886
-0.47799229574999913	0.29066746233645163
-0.47793126059374913	0.27676113444107675
-0.47787022543749913	0.26201055952693936
-0.47780919028124913	0.24646083628501786
-0.47774815512499913	0.23015948517763976
-0.47768711996874913	0.21315635250413037
-0.47762608481249913	0.1955034948820766
-0.47756504965624913	0.1772549085589892
-0.47750401449999913	0.15846645624026293
-0.47744297934374913	0.13919571730710661
-0.47738194418749913	0.11950168471789434
-0.47732090903124913	0.09944472616039299
-0.47725987387499913	0.07908634633863719
-0.47719883871874913	0.05848894766132502
-0.47713780356249913	0.03771571551665279
-0.47707676840624913	0.01683040662004205
-0.47701573324999913	-0.004102874274851687
-0.47695469809374913	-0.025019881315940545
-0.47689366293749913	-0.0458563205612083
-0.47683262778124913	-0.06654819027841467
-0.47677159262499913	-0.08703191949345361
-0.47671055746874913	-0.10724445908124319
-0.47664952231249913	-0.127123692277664
-0.47658848715624913	-0.14660842745525673
-0.47652745199999913	-0.16563866751471268
-0.47646641684374913	-0.18415583422416615
-0.47640538168749913	-0.20210282903697188
-0.47634434653124913	-0.21942437036638418
-0.47628331137499913	-0.23606701521412388
-0.47622227621874913	-0.2519793870046486
-0.47616124106249913	-0.26711239276123777
-0.47610020590624913	-0.2814192388307251
-0.47603917074999913	-0.2948556984517106
-0.47597813559374913	-0.3073802055939916
-0.47591710043749913	-0.31895394314421266
-0.47585606528124913	-0.32954104877035645
-0.47579503012499913	-0.3391086466567323
-0.47573399496874913	-0.3476269803157498
-0.47567295981249913	-0.35506954019935405
-0.47561192465624913	-0.361413079017875
-0.47555088949999913	-0.3666377300028508
-0.47548985434374913	-0.37072707927858084
-0.47542881918749913	-0.3736681628220246
-0.47536778403124913	-0.37545157008194713
-0.47530674887499913	-0.37607144411247445
-0.47524571371874913	-0.37552548892676685
-0.47518467856249913	-0.3738150154908206
-0.47512364340624913	-0.3709449047542425
-0.47506260824999913	-0.36692361206692864
-0.47500157309374913	-0.3617631390713246
-0.47494053793749913	-0.3554789999047937
-0.47487950278124913	-0.34809017094483596
-0.47481846762499913	-0.3396190346515221
-0.47475743246874913	-0.33009132623605997
-0.47469639731249913	-0.3195360333195385
-0.47463536215624913	-0.3079853127592583
-0.47457432699999913	-0.2954744363227407
-0.47451329184374913	-0.2820415898339127
-0.47445225668749913	-0.26772786506577767
-0.47439122153124913	-0.2525770843780533
-0.47433018637499913	-0.23663560523458885
-0.47426915121874913	-0.21995232997352254
-0.47420811606249913	-0.2025783948676123
-0.47414708090624913	-0.18456712623263233
-0.47408604574999913	-0.1659738342883896
-0.47402501059374913	-0.1468556161808513
-0.47396397543749913	-0.12727126612684167
-0.47390294028124913	-0.10728097744278042
-0.47384190512499913	-0.08694628060302283
-0.47378086996874913	-0.06632976426153656
-0.47371983481249913	-0.04549489777355938
-0.47365879965624913	-0.024505911967205633
-0.47359776449999913	-0.0034274637915309588
-0.47353672934374913	0.01767542021469914
-0.47347569418749913	0.0387376343412661
-0.47341465903124913	0.05969418585676446
-0.47335362387499913	0.08048032907257893
-0.47329258871874913	0.10103187185937033
-0.47323155356249913	0.12128527363234519
-0.47317051840624913	0.14117790523698773
-0.47310948324999913	0.1606482073817111
-0.47304844809374913	0.17963590969764476
-0.47298741293749913	0.19808218942440567
-0.47292637778124913	0.21592986899658542
-0.47286534262499913	0.23312361441000845
-0.47280430746874913	0.24961003731955558
-0.47274327231249913	0.2653379467080307
-0.47268223715624913	0.2802584489447746
-0.47262120199999913	0.2943251333160021
-0.47256016684374913	0.3074941828349384
-0.47249913168749913	0.3197245393560513
-0.47243809653124913	0.330978045884014
-0.47237706137499913	0.341219489532461
-0.47231602621874913	0.35041681960328136
-0.47225499106249913	0.3585411649342901
-0.47219395590624913	0.36556694692527847
-0.47213292074999913	0.3714720030535541
-0.47207188559374913	0.37623757279756836
-0.47201085043749913	0.3798484376497289
-0.47194981528124913	0.3822929356136491
-0.47188878012499913	0.3835629813829543
-0.47182774496874913	0.3836541349105641
-0.47176670981249913	0.3825655847741311
-0.47170567465624913	0.3803001626713347
-0.47164463949999913	0.3768643380410374
-0.47158360434374913	0.37226820246566195
-0.47152256918749913	0.3665254319309026
-0.47146153403124913	0.3596532508914207
-0.47140049887499913	0.35167238713580806
-0.47133946371874913	0.3426070009715486
-0.47127842856249913	0.33248460878647695
-0.47121739340624913	0.3213360154541596
-0.47115635824999913	0.3091952133743037
-0.47109532309374913	0.29609925727071357
-0.47103428793749913	0.28208820094972026
-0.47097325278124913	0.2672049221778895
-0.47091221762499913	0.251495020221173
-0.47085118246874913	0.235006679253731
-0.47079014731249913	0.21779050559099747
-0.47072911215624913	0.19989937507755404
-0.47066807699999913	0.18138827049959544
-0.47060704184374913	0.1623141482426511
-0.47054600668749913	0.1427356869863706
-0.47048497153124913	0.12271317611035039
-0.47042393637499913	0.10230831314918677
