Time	Frequency
-0.5000563652812531	-0.33762044963563853
-0.4999953301250031	-0.34406313900076996
-0.4999342949687531	-0.34948386828834016
-0.4998732598125031	-0.35386644993456245
-0.4998122246562531	-0.3571978125724556
-0.4997511895000031	-0.35946795735573894
-0.4996901543437531	-0.3606699609699723
-0.4996291191875031	-0.3608001067535647
-0.4995680840312531	-0.35985778208731667
-0.4995070488750031	-0.35784554604422497
-0.4994460137187531	-0.3547691211007126
-0.4993849785625031	-0.35063733986836726
-0.4993239434062531	-0.34546216707261335
-0.4992629082500031	-0.3392586347909311
-0.4992018730937531	-0.33204480400234715
-0.4991408379375031	-0.32384173604780986
-0.4990798027812531	-0.31467338980804116
-0.4990187676250031	-0.30456659671158326
-0.4989577324687531	-0.2935509622571479
-0.4988966973125031	-0.2816587571677927
-0.4988356621562531	-0.268924890499271
-0.4987746270000031	-0.2553867236439487
-0.4987135918437531	-0.24108402022565464
-0.4986525566875031	-0.22605883460705958
-0.4985915215312531	-0.21035531727689916
-0.4985304863750031	-0.19401969469311978
-0.4984694512187531	-0.17710004529560738
-0.4984084160625031	-0.1596461569831637
-0.4983473809062531	-0.14170950509918998
-0.4982863457500031	-0.12334291627283048
-0.4982253105937531	-0.10460054683972597
-0.4981642754375031	-0.08553772284624386
-0.4981032402812531	-0.06621063511806717
-0.4980422051250031	-0.046676408850145235
-0.4979811699687531	-0.026992707048345527
-0.4979201348125031	-0.007217679094541633
-0.4978590996562531	0.012590163397199145
-0.4977980645000031	0.0323723021909645
-0.4977370293437531	0.052070166053220276
-0.4976759941875031	0.07162545994271294
-0.4976149590312531	0.09098026798189121
-0.4975539238750031	0.11007722344024425
-0.4974928887187531	0.12885974690093518
-0.4974318535625031	0.14727209128064875
-0.4973708184062531	0.1652596260246193
-0.4973097832500031	0.1827689282587032
-0.4972487480937531	0.19974796962707117
-0.4971877129375031	0.216146254620871
-0.4971266777812531	0.2319149818467658
-0.4970656426250031	0.24700721212301152
-0.4970046074687531	0.2613779054045945
-0.4969435723125031	0.2749842324165144
-0.4968825371562531	0.2877855210335327
-0.4968215020000031	0.2997434702503673
-0.4967604668437531	0.31082232111368363
-0.4966994316875031	0.32098876644375013
-0.4966383965312531	0.3302122903052074
-0.4965773613750031	0.3384651091328793
-0.4965163262187531	0.3457222517294053
-0.4964552910625031	0.35196174144877795
-0.4963942559062531	0.3571645560871075
-0.4963332207500031	0.3613147336856588
-0.4962721855937531	0.3643994160258703
-0.4962111504375031	0.36640888749862016
-0.4961501152812531	0.3673365980268
-0.4960890801250031	0.36717919340970645
-0.4960280449687531	0.3659365249853111
-0.4959670098125031	0.363611643290249
-0.4959059746562531	0.3602108036511532
-0.4958449395000031	0.3557434384081036
-0.4957839043437531	0.35022214115417805
-0.4957228691875031	0.34366261661768277
-0.4956618340312531	0.3360836525378075
-0.4956007988750031	0.3275070526900485
-0.4955397637187531	0.31795758246153843
-0.4954787285625031	0.3074628907395686
-0.4954176934062531	0.2960534311793721
-0.4953566582500031	0.2837623907500994
-0.4952956230937531	0.2706255388181183
-0.4952345879375031	0.25668121727044185
-0.4951735527812531	0.24197012349200386
-0.4951125176250031	0.22653524617443394
-0.4950514824687531	0.21042179763334054
-0.4949904473125031	0.1936768960050632
-0.4949294121562531	0.17634965954946497
-0.4948683770000031	0.15849093126015548
-0.4948073418437531	0.14015304586933758
-0.4947463066875031	0.12138993482879744
-0.4946852715312531	0.10225671758975204
-0.4946242363750031	0.08280960833258737
-0.4945632012187531	0.06310588182954516
-0.4945021660625031	0.04320349240356293
-0.4944411309062531	0.023161042349935212
-0.4943800957500031	0.0030376062080666134
-0.4943190605937531	-0.017107516430666235
-0.4942580254375031	-0.03721491884910991
-0.4941969902812531	-0.05722528703059097
-0.4941359551250031	-0.0770795470427882
-0.4940749199687531	-0.09671910878676626
-0.4940138848125031	-0.1160859349822617
-0.4939528496562531	-0.1351227867485524
-0.4938918145000031	-0.1537734369875247
-0.4938307793437531	-0.17198266450831262
-0.4937697441875031	-0.18969663917792215
-0.4937087090312531	-0.20686291780107047
-0.4936476738750031	-0.22343064934944518
-0.4935866387187531	-0.23935079458709407
-0.4935256035625031	-0.2545761137434016
-0.4934645684062531	-0.2690615190439393
-0.4934035332500031	-0.28276399230770416
-0.4933424980937531	-0.29564286332270356
-0.4932814629375031	-0.30765993609847964
-0.4932204277812531	-0.31877941468094834
-0.4931593926250031	-0.3289682922538552
-0.4930983574687531	-0.338196232429943
-0.4930373223125031	-0.34643571605089746
-0.4929762871562531	-0.35366222130723035
-0.4929152520000031	-0.3598541197387185
-0.4928542168437531	-0.3649929200580654
-0.4927931816875031	-0.36906321336234915
-0.4927321465312531	-0.37205272803113587
-0.4926711113750031	-0.3739524496049516
-0.4926100762187531	-0.37475653526996305
-0.4925490410625031	-0.3744624168847785
-0.4924880059062531	-0.37307078180045644
-0.4924269707500031	-0.37058555746872773
-0.4923659355937531	-0.36701393232295654
-0.4923049004375031	-0.36236630686711785
-0.4922438652812531	-0.3566562869886646
-0.4921828301250031	-0.3499006298304078
-0.4921217949687531	-0.34211919747203196
-0.4920607598125031	-0.33333492125810504
-0.4919997246562531	-0.3235736807306034
-0.4919386895000031	-0.312864310591755
-0.4918776543437531	-0.3012384317696822
-0.4918166191875031	-0.2887304077380864
-0.4917555840312531	-0.2753772591071633
-0.4916945488750031	-0.26121846296808515
-0.4916335137187531	-0.24629599207772382
-0.4915724785625031	-0.23065402570408772
-0.4915114434062531	-0.21433892508198651
-0.4914504082500031	-0.19739908423767655
-0.4913893730937531	-0.17988472460268895
-0.4913283379375031	-0.16184784092062673
-0.4912673027812531	-0.14334195091498325
-0.4912062676250031	-0.12442202709403387
-0.4911452324687531	-0.10514426435178635
-0.4910841973125031	-0.08556593000841436
-0.4910231621562531	-0.06574525016541995
-0.4909621270000031	-0.04574112647541448
-0.4909010918437531	-0.025613064324669945
-0.4908400566875031	-0.005420977727536659
-0.4907790215312531	0.01477508069188943
-0.4907179863750031	0.034914967616476195
-0.4906569512187531	0.05493869264404905
-0.4905959160625031	0.07478663255301768
-0.4905348809062531	0.09439963268974806
-0.4904738457500031	0.11371921339595759
-0.4904128105937531	0.13268779276643233
-0.4903517754375031	0.15124879010698722
-0.4902907402812531	0.1693467988981647
-0.4902297051250031	0.18692782666595548
-0.4901686699687531	0.2039393783342803
-0.4901076348125031	0.22033060687066022
-0.4900465996562531	0.2360525585928468
-0.4899855645000031	0.25105825116603064
-0.4899245293437531	0.2653027517599724
-0.4898634941875031	0.2787434848682258
-0.4898024590312531	0.2913402090142051
-0.4897414238750031	0.3030551410240128
-0.4896803887187531	0.31385323647894986
-0.4896193535625031	0.3237020693783962
-0.4895583184062531	0.33257205666843787
-0.4894972832500031	0.34043659433919726
-0.4894362480937531	0.3472719789932652
-0.4893752129375031	0.35305763223872455
-0.4893141777812531	0.3577760978627286
-0.4892531426250031	0.3614130672288676
-0.4891921074687531	0.36395750210769234
-0.4891310723125031	0.3654015996938479
-0.4890700371562531	0.3657408435887124
-0.4890090020000031	0.36497402312317956
-0.4889479668437531	0.36310323477438017
-0.4888869316875031	0.3601338693431284
-0.4888258965312531	0.3560746095061835
-0.4887648613750031	0.3509373970506828
-0.4887038262187531	0.34473740372781003
-0.4886427910625031	0.33749298273482226
-0.4885817559062531	0.3292256157402476
-0.4885207207500031	0.31995987009573135
-0.4884596855937531	0.3097232716128875
-0.4883986504375031	0.2985463121144327
-0.4883376152812531	0.2864622606367186
-0.4882765801250031	0.2735071355133726
-0.4882155449687531	0.2597196026829883
-0.4881545098125031	0.2451407566354303
-0.4880934746562531	0.22981418496482642
-0.4880324395000031	0.21378563239037646
-0.4879714043437531	0.1971030045246394
-0.4879103691875031	0.17981623666303903
-0.4878493340312531	0.16197696499746292
-0.4877882988750031	0.1436386371840777
-0.4877272637187531	0.1248561428738416
-0.4876662285625031	0.1056857158772486
-0.4876051934062531	0.08618484675357217
-0.4875441582500031	0.0664119468557573
-0.4874831230937531	0.046426346197273045
-0.4874220879375031	0.026288003504316114
-0.4873610527812531	0.006057328461548217
-0.4873000176250031	-0.014204882505911252
-0.4872389824687531	-0.034437792266170525
-0.4871779473125031	-0.0545806042541552
-0.4871169121562531	-0.07457271838510154
-0.4870558770000031	-0.09435403897731642
-0.4869948418437531	-0.11386499974262218
-0.4869338066875031	-0.13304687392327771
-0.4868727715312531	-0.1518418693893913
-0.4868117363750031	-0.1701933145070548
-0.4867507012187531	-0.18804589548954279
-0.4866896660625031	-0.20534569519861268
-0.4866286309062531	-0.2220404993617573
-0.4865675957500031	-0.2380798285141789
-0.4865065605937531	-0.2534151767445811
-0.4864455254375031	-0.26800014480227774
-0.4863844902812531	-0.2817904979485683
-0.4863234551250031	-0.2947444327319504
-0.4862624199687531	-0.30682260917365656
-0.4862013848125031	-0.317988269100434
-0.4861403496562531	-0.3282074296753
-0.4860793145000031	-0.3374488915499048
-0.4860182793437531	-0.34568436983546735
-0.4859572441875031	-0.35288862804570814
-0.4858962090312531	-0.3590394634140505
-0.4858351738750031	-0.3641178472048419
-0.4857741387187531	-0.3681079656373311
-0.4857131035625031	-0.3709972476791419
-0.4856520684062531	-0.3727764293694682
-0.4855910332500031	-0.3734395701904553
-0.4855299980937531	-0.3729840847763553
-0.4854689629375031	-0.371410729834657
-0.4854079277812531	-0.3687236312950629
-0.4853468926250031	-0.3649302555718648
-0.4852858574687531	-0.36004138909338346
-0.4852248223125031	-0.3540711229906179
-0.4851637871562531	-0.34703678965702395
-0.4851027520000031	-0.33895893347037825
-0.4850417168437531	-0.3298612400884611
-0.4849806816875031	-0.3197704644697556
-0.4849196465312531	-0.3087163629756032
-0.4848586113750031	-0.29673159019062645
-0.4847975762187531	-0.28385162595626856
-0.4847365410625031	-0.2701146386888559
-0.4846755059062531	-0.25556138968735626
-0.4846144707500031	-0.24023514926820552
-0.4845534355937531	-0.22418145148025542
-0.4844924004375031	-0.20744811736661373
-0.4844313652812531	-0.190085015143184
-0.4843703301250031	-0.17214385400146326
-0.4843092949687531	-0.1536782145952044
-0.4842482598125031	-0.13474322464601765
-0.4841872246562531	-0.11539541590868156
-0.4841261895000031	-0.09569263759965987
-0.4840651543437531	-0.07569385616487605
-0.4840041191875031	-0.05545883843536642
-0.4839430840312531	-0.03504821015570169
-0.4838820488750031	-0.014523139365106246
-0.4838210137187531	0.006054962045543925
-0.4837599785625031	0.026624290301590074
-0.4836989434062531	0.04712319961386212
-0.4836379082500031	0.06749020971543548
-0.4835768730937531	0.08766409046997571
-0.4835158379375031	0.10758432669102602
-0.4834548027812531	0.12719103333213896
-0.4833937676250031	0.1464252498018434
-0.4833327324687531	0.16522916948465108
-0.4832716973125031	0.1835461806880756
-0.4832106621562531	0.20132116517835158
-0.4831496270000031	0.21850057977936269
-0.4830885918437531	0.23503267148190826
-0.4830275566875031	0.25086759326916425
-0.4829665215312531	0.2659575740087776
-0.4829054863750031	0.28025709634018603
-0.4828444512187531	0.2937229489960779
-0.4827834160625031	0.30631445984557376
-0.4827223809062531	0.3179935375288373
-0.4826613457500031	0.3287248449851738
-0.4826003105937531	0.33847585924790236
-0.4825392754375031	0.34721701315325654
-0.4824782402812531	0.3549217725472298
-0.4824172051250031	0.3615666770182807
-0.4823561699687531	0.3671315006059327
-0.4822951348125031	0.37159921286535397
-0.4822340996562531	0.37495611198882284
-0.4821730645000031	0.3771918250115754
-0.4821120293437531	0.3782993477329564
-0.4820509941875031	0.37827508694763134
-0.4819899590312531	0.37711883585952544
-0.4819289238750031	0.37483382276699373
-0.4818678887187531	0.3714266582016498
-0.4818068535625031	0.3669073488342084
-0.4817458184062531	0.3612892554247105
-0.4816847832500031	0.3545890509452449
-0.4816237480937531	0.3468266858763719
-0.4815627129375031	0.3380253105156726
-0.4815016777812531	0.32821122762301913
-0.4814406426250031	0.3174137914585497
-0.4813796074687531	0.30566534700515585
-0.4813185723125031	0.2930011122943804
-0.4812575371562531	0.2794590757904596
-0.4811965020000031	0.26507990226377137
-0.4811354668437531	0.2499067886938535
-0.4810744316875031	0.23398533754173179
-0.4810133965312531	0.2173634466712592
-0.4809523613750031	0.20009112355050496
-0.4808913262187531	0.1822203710460538
-0.4808302910625031	0.16380501792688965
-0.4807692559062531	0.14490053977108694
-0.4807082207500031	0.12556393765405516
-0.4806471855937531	0.10585350502712787
-0.4805861504375031	0.0858287281266803
-0.4805251152812531	0.06555001572961108
-0.4804640801250031	0.04507859731009566
-0.4804030449687531	0.024476300083723843
-0.4803420098125031	0.0038053730368721723
-0.4802809746562531	-0.016871735351937457
-0.4802199395000031	-0.037492499276714435
-0.4801589043437531	-0.0579945278203213
-0.4800978691875031	-0.07831585922960961
-0.4800368340312531	-0.0983949155229824
-0.4799757988750031	-0.1181709640531777
-0.4799147637187531	-0.13758407977136666
-0.4798537285625031	-0.15657545036728154
-0.4797926934062531	-0.1750875275425354
-0.4797316582500031	-0.1930641413336861
-0.4796706230937531	-0.21045081399903326
-0.4796095879375031	-0.22719471885053827
-0.4795485527812531	-0.24324507864685332
-0.4794875176250031	-0.2585531019724486
-0.4794264824687531	-0.27307225695053233
-0.4793654473125031	-0.28675843647623805
-0.4793044121562531	-0.2995699399546446
-0.4792433770000031	-0.3114678030732952
-0.4791823418437531	-0.3224157503960839
-0.4791213066875031	-0.33238038758568683
-0.4790602715312531	-0.3413313248007206
-0.4789992363750031	-0.3492411553717172
-0.4789382012187531	-0.35608570364038916
-0.4788771660625031	-0.36184397417456315
-0.4788161309062531	-0.3664982296842258
-0.4787550957500031	-0.3700341471473784
-0.4786940605937531	-0.3724407250842601
-0.4786330254375031	-0.37371040441943926
-0.4785719902812531	-0.37383909030166934
-0.4785109551250031	-0.37282611999804827
-0.4784499199687531	-0.37067431077358093
-0.4783888848125031	-0.3673899353104085
-0.4783278496562531	-0.36298270156489576
-0.4782668145000031	-0.357465731970933
-0.4782057793437531	-0.3508555240479046
-0.4781447441875031	-0.34317189558034333
-0.4780837090312531	-0.3344379404727489
-0.4780226738750031	-0.3246799339642156
-0.4779616387187531	-0.3139272948854337
-0.4779006035625031	-0.302212457270715
-0.4778395684062531	-0.2895707818949718
-0.4777785332500031	-0.27604050033263666
-0.4777174980937531	-0.26166249526198565
-0.4776564629375031	-0.2464803047750342
-0.4775954277812531	-0.230539886993871
-0.4775343926250031	-0.21388951807860349
-0.4774733574687531	-0.19657971781795858
-0.4774123223125031	-0.17866291179040794
-0.4773512871562531	-0.16019350994249099
-0.4772902520000031	-0.14122757319079077
-0.4772292168437531	-0.12182264670281118
-0.4771681816875031	-0.10203775078554894
-0.4771071465312531	-0.08193296832165804
-0.4770461113750031	-0.061569430933173075
-0.4769850762187531	-0.04100911448165811
-0.4769240410625031	-0.02031455231715898
-0.4768630059062531	0.000451259211795914
-0.4768019707500031	0.021225060062210158
-0.4767409355937531	0.04194357019357445
-0.4766799004375031	0.06254364395020309
-0.4766188652812531	0.0829624421481008
-0.4765578301250031	0.10313770928535797
-0.4764967949687531	0.12300785573741572
-0.4764357598125031	0.14251219570766838
-0.4763747246562531	0.161591170674057
-0.4763136895000031	0.18018645459136265
-0.4762526543437531	0.1982411738706242
-0.4761916191875031	0.21570010834817546
-0.4761305840312531	0.23250979091021098
-0.4760695488750031	0.24861871027149346
-0.4760085137187531	0.2639775234425154
-0.4759474785625031	0.27853906974034565
-0.4758864434062531	0.2922586434768126
-0.4758254082500031	0.30509409511814595
-0.4757643730937531	0.31700591278124074
-0.4757033379375031	0.3279574191767049
-0.4756423027812531	0.33791481998053446
-0.4755812676250031	0.3468473553406348
-0.4755202324687531	0.3547273550326921
-0.4754591973125031	0.36153036985381787
-0.4753981621562531	0.3672352053306686
-0.4753371270000031	0.3718240004537843
-0.4752760918437531	0.37528232187460286
-0.4752150566875031	0.37759912710148763
-0.4751540215312531	0.3787668908993951
-0.4750929863750031	0.3787815766181008
-0.4750319512187531	0.37764264588057744
-0.4749709160625031	0.37535310431916913
-0.4749098809062531	0.3719194516664625
-0.4748488457500031	0.36735168262251267
-0.4747878105937531	0.36166326244504887
-0.4747267754375031	0.3548710753212692
-0.4746657402812531	0.3469953796931714
-0.4746047051250031	0.33805975867517146
-0.4745436699687531	0.32809102800746
-0.4744826348125031	0.31711917080373225
-0.4744215996562531	0.3051772605206837
-0.4743605645000031	0.2923013114229429
-0.4742995293437531	0.2785302445549387
-0.4742384941875031	0.2639057186385344
-0.4741774590312531	0.24847197755195413
-0.4741164238750031	0.23227583280629835
-0.4740553887187531	0.2153663615542674
-0.4739943535625031	0.19779490112441725
-0.4739333184062531	0.1796148172591094
-0.4738722832500031	0.16088131866865324
-0.4738112480937531	0.1416514148633631
-0.4737502129375031	0.12198356104364626
-0.4736891777812531	0.1019376334432205
-0.4736281426250031	0.08157469034822616
-0.4735671074687531	0.0609567677648153
-0.4735060723125031	0.04014667753805731
-0.4734450371562531	0.019207939489476394
-0.4733840020000031	-0.0017955820059777205
-0.4733229668437531	-0.022799842156865185
-0.4732619316875031	-0.04374058132008014
-0.4732008965312531	-0.06455391818260896
-0.4731398613750031	-0.08517622688014163
-0.4730788262187531	-0.10554438945241172
-0.4730177910625031	-0.1255961764575154
-0.4729567559062531	-0.14527017356854932
-0.4728957207500031	-0.1645061379043838
-0.4728346855937531	-0.18324517639838236
-0.4727736504375031	-0.20142981575242425
-0.4727126152812531	-0.21900431414281643
-0.4726515801250031	-0.23591475749478494
-0.4725905449687531	-0.25210921016089893
-0.4725295098125031	-0.26753793802578185
-0.4724684746562531	-0.2821535206885302
-0.4724074395000031	-0.2959109968158655
-0.4723464043437531	-0.30876800071251626
-0.4722853691875031	-0.320684952933815
-0.4722243340312531	-0.3316250582222779
-0.4721632988750031	-0.3415545594429075
-0.4721022637187531	-0.35044276664645896
-0.4720412285625031	-0.35826211524487694
-0.4719801934062531	-0.3649883798028262
-0.4719191582500031	-0.3706006054039176
-0.4718581230937531	-0.37508126597715574
-0.4717970879375031	-0.37841630437755663
-0.4717360527812531	-0.38059513936881945
-0.4716750176250031	-0.38161074644127707
-0.4716139824687531	-0.3814596571536307
-0.4715529473125031	-0.38014196781768894
-0.4714919121562531	-0.3776613591387103
-0.4714308770000031	-0.3740250692204591
-0.4713698418437531	-0.3692438852685744
-0.4713088066875031	-0.36333210526930415
-0.4712477715312531	-0.35630749340817114
-0.4711867363750031	-0.34819125014707253
-0.4711257012187531	-0.33900790421038973
-0.4710646660625031	-0.32878528275039287
-0.4710036309062531	-0.3175544230102173
-0.4709425957500031	-0.30534943117950425
-0.4708815605937531	-0.2922074435518725
-0.4708205254375031	-0.2781684860970584
-0.4707594902812531	-0.2632753308391942
-0.4706984551250031	-0.24757340627280672
-0.4706374199687531	-0.23111063766492604
-0.4705763848125031	-0.21393729317553858
-0.4705153496562531	-0.1961058624692159
-0.4704543145000031	-0.17767085330740978
-0.4703932793437531	-0.15868865850867156
-0.4703322441875031	-0.1392173849438559
-0.4702712090312531	-0.11931664395059884
-0.4702101738750031	-0.09904739517683442
-0.4701491387187531	-0.07847177405799861
-0.4700881035625031	-0.057652848052912924
-0.4700270684062531	-0.03665446392893226
-0.4699660332500031	-0.015541119831659423
-0.4699049980937531	0.005622462540406946
-0.4698439629375031	0.026771230387819478
-0.4697829277812531	0.04784018784794427
