Time	Frequency
-0.5000054838437507	0.3482400980896053
-0.49994444868750065	0.3627834535207448
-0.49988341353125065	0.3757309848104481
-0.49982237837500065	0.38702687384191553
-0.49976134321875065	0.3966223590302271
-0.49970030806250065	0.40447602619856154
-0.49963927290625065	0.4105540520403197
-0.49957823775000065	0.4148301957299354
-0.49951720259375065	0.41728605189605283
-0.49945616743750065	0.41791108137078115
-0.49939513228125065	0.41670264031164805
-0.49933409712500065	0.41366604614758684
-0.49927306196875065	0.40881450061098995
-0.49921202681250065	0.4021690765109541
-0.49915099165625065	0.39375862797505
-0.49908995650000065	0.3836196351832317
-0.49902892134375065	0.37179608280723225
-0.49896788618750065	0.3583392823335712
-0.49890685103125065	0.3433075958703179
-0.49884581587500065	0.3267662605622851
-0.49878478071875065	0.3087870653793721
-0.49872374556250065	0.2894480367949585
-0.49866271040625065	0.2688331483894104
-0.49860167525000065	0.24703190717649468
-0.49854064009375065	0.22413901809255798
-0.49847960493750065	0.20025393543873976
-0.49841856978125065	0.17548047247018675
-0.49835753462500065	0.14992631576986015
-0.49829649946875065	0.12370258581345012
-0.49823546431250065	0.09692338418743096
-0.49817442915625065	0.06970522942402171
-0.49811339400000065	0.04216661693865662
-0.49805235884375065	0.014427473936776652
-0.49799132368750065	-0.01339130559851699
-0.49793028853125065	-0.041168484449251
-0.49786925337500065	-0.0687829260036697
-0.49780821821875065	-0.09611406179061248
-0.49774718306250065	-0.12304263878708135
-0.49768614790625065	-0.14945097377133992
-0.49762511275000065	-0.1752235578768046
-0.49756407759375065	-0.2002477176446747
-0.49750304243750065	-0.22441381788855225
-0.49744200728125065	-0.24761593507734223
-0.49738097212500065	-0.26975230067143463
-0.49731993696875065	-0.29072565702303665
-0.49725890181250065	-0.3104437839261352
-0.49719786665625065	-0.3288197904044508
-0.49713683150000065	-0.34577260467159204
-0.49707579634375065	-0.3612272794979465
-0.49701476118750065	-0.37511527597840966
-0.49695372603125065	-0.38737484259935845
-0.49689269087500065	-0.3979512465721773
-0.49683165571875065	-0.40679701740805
-0.49677062056250065	-0.4138721480287327
-0.49670958540625065	-0.41914430053188295
-0.49664855025000065	-0.4225889338620387
-0.49658751509375065	-0.42418939882786055
-0.49652647993750065	-0.4239370491792161
-0.49646544478125065	-0.4218312639937252
-0.49640440962500065	-0.41787944943487787
-0.49634337446875065	-0.4120970271921164
-0.49628233931250065	-0.4045073667680318
-0.49622130415625065	-0.3951416891310131
-0.49616026900000065	-0.38403892998412276
-0.49609923384375065	-0.37124558347854536
-0.49603819868750065	-0.3568155238481661
-0.49597716353125065	-0.34080972486437944
-0.49591612837500065	-0.3232960395292001
-0.49585509321875065	-0.30434895291530906
-0.49579405806250065	-0.28404914391054165
-0.49573302290625065	-0.26248323787754163
-0.49567198775000065	-0.23974345210402864
-0.49561095259375065	-0.2159270780109081
-0.49554991743750065	-0.191136196585009
-0.49548888228125065	-0.16547720042604575
-0.49542784712500065	-0.1390602289284029
-0.49536681196875065	-0.1119988947960414
-0.49530577681250065	-0.08440964259327359
-0.49524474165625065	-0.05641120473263921
-0.49518370650000065	-0.028124350590410442
-0.49512267134375065	0.00032897400479361526
-0.49506163618750065	0.028825985247803592
-0.49500060103125065	0.05724350058729618
-0.49493956587500065	0.08545877579013275
-0.49487853071875065	0.11334972187020641
-0.49481749556250065	0.1407955882556102
-0.49475646040625065	0.16767753611158687
-0.49469542525000065	0.19387896252715062
-0.49463439009375065	0.21928623121289365
-0.49457335493750065	0.24378903776656252
-0.49451231978125065	0.26728084342155006
-0.49445128462500065	0.2896595135329554
-0.49439024946875065	0.3108276017752778
-0.49432921431250065	0.33069280781385185
-0.49426817915625065	0.3491684527669649
-0.49420714400000065	0.3661738073001665
-0.49414610884375065	0.38163440860077436
-0.49408507368750065	0.3954824272901956
-0.49402403853125065	0.407657023508624
-0.49396300337500065	0.4181044826603107
-0.49390196821875065	0.42677855091973815
-0.49384093306250065	0.4336406194416471
-0.49377989790625065	0.4386598715329443
-0.49371886275000065	0.4418134680805244
-0.49365782759375065	0.44308657019295394
-0.49359679243750065	0.4424725032304418
-0.49353575728125065	0.439972738755563
-0.49347472212500065	0.4355968769871459
-0.49341368696875065	0.4293626468550189
-0.49335265181250065	0.42129582717215663
-0.49329161665625065	0.41143012186920797
-0.49323058150000065	0.399807011174196
-0.49316954634375065	0.38647562724350293
-0.49310851118750065	0.37149249029463866
-0.49304747603125065	0.35492127270605
-0.49298644087500065	0.33683256080807905
-0.49292540571875065	0.3173035540099371
-0.49286437056250065	0.2964176546233963
-0.49280333540625065	0.2742641961492775
-0.49274230025000065	0.25093808002044204
-0.49268126509375065	0.22653921289161225
-0.49262022993750065	0.2011722619318748
-0.49255919478125065	0.17494610670307367
-0.49249815962500065	0.1479733342007284
-0.49243712446875065	0.12036988765373224
-0.49237608931250065	0.09225436704807315
-0.49231505415625065	0.06374773069461069
-0.49225401900000065	0.034972644455779925
-0.49219298384375065	0.006052863460510269
-0.49213194868750065	-0.02288699672561163
-0.49207091353125065	-0.05172235453527951
-0.49200987837500065	-0.08032902922980706
-0.49194884321875065	-0.10858368788529459
-0.49188780806250065	-0.1363646349899518
-0.49182677290625065	-0.16355211237250913
-0.49176573775000065	-0.1900289046474222
-0.49170470259375065	-0.2156808882972489
-0.49164366743750065	-0.24039747143364157
-0.49158263228125065	-0.26407207940636596
-0.49152159712500065	-0.28660265246432226
-0.49146056196875065	-0.3078920810260819
-0.49139952681250065	-0.32784858527391786
-0.49133849165625065	-0.34638618821623485
-0.49127745650000065	-0.36342504486552696
-0.49121642134375065	-0.37889178402355406
-0.49115538618750065	-0.3927198643572461
-0.49109435103125065	-0.4048498533218987
-0.49103331587500065	-0.41522966686971935
-0.49097228071875065	-0.42381483165043
-0.49091124556250065	-0.4305686542536309
-0.49085021040625065	-0.43546238933030734
-0.49078917525000065	-0.43847539928520596
-0.49072814009375065	-0.43959518807962306
-0.49066710493750065	-0.4388174965192713
-0.49060606978125065	-0.4361463380479135
-0.49054503462500065	-0.43159393860552897
-0.49048399946875065	-0.4251807127025114
-0.49042296431250065	-0.41693519239010807
-0.49036192915625065	-0.4068938661082219
-0.49030089400000065	-0.39510105328948014
-0.49023985884375065	-0.3816087033831652
-0.49017882368750065	-0.3664761741854124
-0.49011778853125065	-0.3497699659269751
-0.49005675337500065	-0.3315634420261732
-0.48999571821875065	-0.31193652254438026
-0.48993468306250065	-0.2909753034585524
-0.48987364790625065	-0.2687717270274332
-0.48981261275000065	-0.24542313075138436
-0.48975157759375065	-0.22103189796857148
-0.48969054243750065	-0.19570492252164493
-0.48962950728125065	-0.1695531765127456
-0.48956847212500065	-0.14269134345916454
-0.48950743696875065	-0.11523706480436428
-0.48944640181250065	-0.08731067703960387
-0.48938536665625065	-0.05903458581903238
-0.48932433150000065	-0.030532625409739052
-0.48926329634375065	-0.0019297948620722477
-0.48920226118750065	0.02664860223462483
-0.48914122603125065	0.05507732723255739
-0.48908019087500065	0.08323172755984795
-0.48901915571875065	0.11098842702220266
-0.48895812056250065	0.13822571228943675
-0.48889708540625065	0.1648242154443079
-0.48883605025000065	0.19066727905865877
-0.48877501509375065	0.21564156122011002
-0.48871397993750065	0.23963759749653843
-0.48865294478125065	0.262550085881704
-0.48859190962500065	0.2842785261232399
-0.48853087446875065	0.30472762279309257
-0.48846983931250065	0.3238076329407233
-0.48840880415625065	0.3414348287102146
-0.48834776900000065	0.3575318527719926
-0.48828673384375065	0.3720280747288275
-0.48822569868750065	0.3848598355421517
-0.48816466353125065	0.3959708022269745
-0.48810362837500065	0.4053122198268648
-0.48804259321875065	0.4128430434711956
-0.48798155806250065	0.4185302220611067
-0.48792052290625065	0.4223487903106149
-0.48785948775000065	0.4242819797125565
-0.48779845259375065	0.42432133204955536
-0.48773741743750065	0.42246669892979
-0.48767638228125065	0.41872626803569624
-0.48761534712500065	0.4131165316127025
-0.48755431196875065	0.4056622041842353
-0.48749327681250065	0.39639612960340964
-0.48743224165625065	0.3853591337668251
-0.48737120650000065	0.3725998492411102
-0.48731017134375065	0.3581745193157441
-0.48724913618750065	0.34214671593538387
-0.48718810103125065	0.3245871106727938
-0.48712706587500065	0.30557315105091093
-0.48706603071875065	0.28518868916548307
-0.48700499556250065	0.2635236657881607
-0.48694396040625065	0.24067371158517248
-0.48688292525000065	0.21673968965355736
-0.48682189009375065	0.19182726976878822
-0.48676085493750065	0.1660465288662817
-0.48669981978125065	0.13951138138403021
-0.48663878462500065	0.11233908829102628
-0.48657774946875065	0.08464983247377578
-0.48651671431250065	0.056566103083363115
-0.48645567915625065	0.028212174068199633
-0.48639464400000065	-0.0002864373546914031
-0.48633360884375065	-0.02880346844262782
-0.48627257368750065	-0.057212535987267714
-0.48621153853125065	-0.08538775302956182
-0.48615050337500065	-0.11320400139287862
-0.48608946821875065	-0.14053785509492142
-0.48602843306250065	-0.16726797699478163
-0.48596739790625065	-0.19327536655118055
-0.48590636275000065	-0.21844444208247846
-0.48584532759375065	-0.24266313615360147
-0.48578429243750065	-0.26582341071231347
-0.48572325728125065	-0.28782201602743174
-0.48566222212500065	-0.30856060907157606
-0.48560118696875065	-0.3279464270459872
-0.48554015181250065	-0.34589261359610274
-0.48547911665625065	-0.36231854185162987
-0.48541808150000065	-0.37715032718009317
-0.48535704634375065	-0.39032100319136315
-0.48529601118750065	-0.40177090352061223
-0.48523497603125065	-0.4114479293028357
-0.48517394087500065	-0.41930772958328194
-0.48511290571875065	-0.4253139691818401
-0.48505187056250065	-0.42943844044110757
-0.48499083540625065	-0.4316612141106315
-0.48492980025000065	-0.4319707476633599
-0.48486876509375065	-0.43036390140009184
-0.48480772993750065	-0.42684599755780306
-0.48474669478125065	-0.4214307793863241
-0.48468565962500065	-0.4141403606351838
-0.48462462446875065	-0.405005149914593
-0.48456358931250065	-0.39406367103653034
-0.48450255415625065	-0.38136248832686065
-0.48444151900000065	-0.36695591195369026
-0.48438048384375065	-0.3509058013562097
-0.48431944868750065	-0.33328136439196065
-0.48425841353125065	-0.3141586990570304
-0.48419737837500065	-0.2936206387756587
-0.48413634321875065	-0.27175629212600516
-0.48407530806250065	-0.24866062283807808
-0.48401427290625065	-0.22443417288727502
-0.48395323775000065	-0.19918249465763085
-0.48389220259375065	-0.17301568655034705
-0.48383116743750065	-0.14604804731760435
-0.48377013228125065	-0.11839744523228746
-0.48370909712500065	-0.09018478338933664
-0.48364806196875065	-0.06153364192183918
-0.48358702681250065	-0.032569543865616515
-0.48352599165625065	-0.0034194667861728134
-0.48346495650000065	0.025788650145127934
-0.48340392134375065	0.0549265119907205
-0.48334288618750065	0.08386612332208884
-0.48328185103125065	0.11248020411109073
-0.48322081587500065	0.14064277229004563
-0.48315978071875065	0.16822988981224807
-0.48309874556250065	0.19511992406311435
-0.48303771040625065	0.22119427588674348
-0.48297667525000065	0.246337867744148
-0.48291564009375065	0.27043959909262755
-0.48285460493750065	0.29339295423967643
-0.48279356978125065	0.3150962725454361
-0.48273253462500065	0.33545343407820766
-0.48267149946875065	0.3543741621913106
-0.48261046431250065	0.37177433226023787
-0.48254942915625065	0.38757662314760893
-0.48248839400000065	0.40171056137122363
-0.48242735884375065	0.41411297874782954
-0.48236632368750065	0.4247283759723617
-0.48230528853125065	0.4335089508704727
-0.48224425337500065	0.44041503256326264
-0.48218321821875065	0.44541514498123774
-0.48212218306250065	0.44848613828472983
-0.48206114790625065	0.4496133899748612
-0.48200011275000065	0.44879078021113744
-0.48193907759375065	0.4460207616187591
-0.48187804243750065	0.4413143624316279
-0.48181700728125065	0.43469113284475086
-0.48175597212500065	0.4261790532949636
-0.48169493696875065	0.4158144218929032
-0.48163390181250065	0.4036417256359237
-0.48157286665625065	0.3897134032482607
-0.48151183150000065	0.3740896378522108
-0.48145079634375065	0.3568381179814734
-0.48138976118750065	0.338033721236171
-0.48132872603125065	0.3177581638988789
-0.48126769087500065	0.29609969527028623
-0.48120665571875065	0.2731527007569323
-0.48114562056250065	0.24901721763770632
-0.48108458540625065	0.2237986176211549
-0.48102355025000065	0.19760706268101857
-0.48096251509375065	0.17055700864755236
-0.48090147993750065	0.14276675470290578
-0.48084044478125065	0.11435794363249344
-0.48077940962500065	0.0854549026932746
-0.48071837446875065	0.056184206966595665
-0.48065733931250065	0.026674200695630874
-0.48059630415625065	-0.002945893253864157
-0.48053526900000065	-0.03254612798133139
-0.48047423384375065	-0.061996665294611744
-0.48041319868750065	-0.09116838353602756
-0.48035216353125065	-0.11993318198664323
-0.48029112837500065	-0.14816486744301635
-0.48023009321875065	-0.1757394677096717
-0.48016905806250065	-0.20253593438362827
-0.48010802290625065	-0.22843658960170574
-0.48004698775000065	-0.25332766577267873
-0.47998595259375065	-0.27709988142605035
-0.47992491743750065	-0.29964879212150763
-0.47986388228125065	-0.32087538108541996
-0.47980284712500065	-0.34068642887434686
-0.47974181196875065	-0.3589949440617857
-0.47968077681250065	-0.3757205550670426
-0.47961974165625065	-0.39078988922259256
-0.47955870650000065	-0.40413682207627827
-0.47949767134375065	-0.4157028727002889
-0.47943663618750065	-0.42543742856374506
-0.47937560103125065	-0.4332979088029882
-0.47931456587500065	-0.4392500732011574
-0.47925353071875065	-0.4432680730985757
-0.47919249556250065	-0.44533462497252385
-0.47913146040625065	-0.44544108590724846
-0.47907042525000065	-0.4435874587773787
-0.47900939009375065	-0.4397824465570732
-0.47894835493750065	-0.43404338271210935
-0.47888731978125065	-0.4263961552329261
-0.47882628462500065	-0.41687512568401247
-0.47876524946875065	-0.4055229512452967
-0.47870421431250065	-0.39239039475249265
-0.47864317915625065	-0.377536140939944
-0.47858214400000065	-0.36102649765031164
-0.47852110884375065	-0.34293510893336676
-0.47846007368750065	-0.3233426658337909
-0.47839903853125065	-0.30233652086390855
-0.47833800337500065	-0.28001028541069517
-0.47827696821875065	-0.2564634520305595
-0.47821593306250065	-0.2318009856061623
-0.47815489790625065	-0.20613273924699732
-0.47809386275000065	-0.17957306056761582
-0.47803282759375065	-0.15224036797339685
-0.47797179243750065	-0.1242563793809247
-0.47791075728125065	-0.09574577999936994
-0.47784972212500065	-0.0668356980149782
-0.47778868696875065	-0.037654902509059396
-0.47772765181250065	-0.008333440382133442
-0.47766661665625065	0.020997922664929294
-0.47760558150000065	0.050208463084565884
-0.47754454634375065	0.07916800364301871
-0.47748351118750065	0.10774732957983407
-0.47742247603125065	0.13581899471188347
-0.47736144087500065	0.16325786042110063
-0.47730040571875065	0.18994144690226145
-0.47723937056250065	0.21575070174440913
-0.47717833540625065	0.24057049653131457
-0.47711730025000065	0.2642900055159078
-0.47705626509375065	0.2868033156934775
-0.47699522993750065	0.30800994251969543
-0.47693419478125065	0.3278151499525274
-0.47687315962500065	0.34613042245941045
-0.47681212446875065	0.3628739508711795
-0.47675108931250065	0.37797087832543946
-0.47669005415625065	0.3913536661302525
-0.47662901900000065	0.4029624771881878
-0.47656798384375065	0.41274534273640134
-0.47650694868750065	0.4206584308798298
-0.47644591353125065	0.4266663022855875
-0.47638487837500065	0.43074197425886124
-0.47632384321875065	0.4328671150039239
-0.47626280806250065	0.43303212286083087
-0.47620177290625065	0.4312361231305515
-0.47614073775000065	0.42748704080388217
-0.47607970259375065	0.4218015294132312
-0.47601866743750065	0.41420490289671963
-0.47595763228125065	0.40473103930718096
-0.47589659712500065	0.3934222276226676
-0.47583556196875065	0.38032898857699393
-0.47577452681250065	0.3655098239490422
-0.47571349165625065	0.3490309994130388
-0.47565245650000065	0.3309662585414515
-0.47559142134375065	0.31139639502294425
-0.47553038618750065	0.2904090577810167
-0.47546935103125065	0.2680982510544708
-0.47540831587500065	0.24456387181000735
-0.47534728071875065	0.21991148064986882
-0.47528624556250065	0.19425154363501906
-0.47522521040625065	0.1676991753485841
-0.47516417525000065	0.14037353535274866
-0.47510314009375065	0.11239721020034854
-0.47504210493750065	0.08389590458794055
-0.47498106978125065	0.054997605270539485
-0.47492003462500065	0.025832192392999893
-0.47485899946875065	-0.003469187542830279
-0.47479796431250065	-0.032774748963268235
-0.47473692915625065	-0.061952595151562165
-0.47467589400000065	-0.09087133584942282
-0.47461485884375065	-0.11940069503303372
-0.47455382368750065	-0.14741206706942905
-0.47449278853125065	-0.17477906963979473
-0.47443175337500065	-0.20137822434032138
-0.47437071821875065	-0.22708930420500678
-0.47430968306250065	-0.25179609346136644
-0.47424864790625065	-0.27538683746949744
-0.47418761275000065	-0.2977545764537183
-0.47412657759375065	-0.31879793022727987
-0.47406554243750065	-0.3384213357914404
-0.47400450728125065	-0.35653549150829394
-0.47394347212500065	-0.37305789950622276
-0.47388243696875065	-0.3879130870106509
-0.47382140181250065	-0.40103303273689833
-0.47376036665625065	-0.4123574452116926
-0.47369933150000065	-0.42183403545433173
-0.47363829634375065	-0.42941881080499017
-0.47357726118750065	-0.4350761697578625
-0.47351622603125065	-0.43877915701587583
-0.47345519087500065	-0.4405095865258054
-0.47339415571875065	-0.44025805947554647
-0.47333312056250065	-0.4380240692216725
-0.47327208540625065	-0.433816011282031
-0.47321105025000065	-0.4276511171523993
-0.47315001509375065	-0.41955539706426964
-0.47308897993750065	-0.409563555738633
-0.47302794478125065	-0.39771878420933754
-0.47296690962500065	-0.38407263354245774
-0.47290587446875065	-0.3686847626836514
-0.47284483931250065	-0.35162263464415505
-0.47278380415625065	-0.3329613202782501
-0.47272276900000065	-0.3127830676068531
-0.47266173384375065	-0.2911769625744071
-0.47260069868750065	-0.2682386031698209
-0.47253966353125065	-0.2440695754200676
-0.47247862837500065	-0.21877704156239955
-0.47241759321875065	-0.19247330618651354
-0.47235655806250065	-0.1652752603107543
-0.47229552290625065	-0.13730386487985236
-0.47223448775000065	-0.1086836407281724
-0.47217345259375065	-0.07954210068931675
-0.47211241743750065	-0.05000918114319183
-0.47205138228125065	-0.020216633484417827
-0.47199034712500065	0.009702524249925697
-0.47192931196875065	0.039614593271386854
-0.47186827681250065	0.06938588258864598
-0.47180724165625065	0.09888320575713236
-0.47174620650000065	0.1279744612160863
-0.47168517134375065	0.15652940083306235
-0.47162413618750065	0.1844200250708541
-0.47156310103125065	0.21152116422718503
-0.47150206587500065	0.2377112681437274
-0.47144103071875065	0.26287262869805217
-0.47137999556250065	0.28689211066828724
-0.47131896040625065	0.3096617445969145
-0.47125792525000065	0.33107888006604896
-0.47119689009375065	0.35104700070308503
-0.47113585493750065	0.36947603830630865
-0.47107481978125065	0.38628263122053
-0.47101378462500065	0.4013907434414839
-0.47095274946875065	0.4147318784390894
-0.47089171431250065	0.4262453551468305
-0.47083067915625065	0.43587870580494265
-0.47076964400000065	0.44358782608101466
-0.47070860884375065	0.44933716740249363
-0.47064757368750065	0.4530999967513351
-0.47058653853125065	0.4548584155336065
-0.47052550337500065	0.45460349337733275
-0.47046446821875065	0.45233533648218227
-0.47040343306250065	0.44806302791869745
