Time	Frequency
-0.5000054838437507	9.064243064978902e-25
-0.49994444868750065	9.442787952059422e-25
-0.49988341353125065	9.779795583705267e-25
-0.49982237837500065	1.0073813085934166e-24
-0.49976134321875065	1.0323571257237245e-24
-0.49970030806250065	1.05279921397139e-24
-0.49963927290625065	1.0686195356078578e-24
-0.49957823775000065	1.0797497891300954e-24
-0.49951720259375065	1.0861420677173226e-24
-0.49945616743750065	1.0877689392673804e-24
-0.49939513228125065	1.0846235221974402e-24
-0.49933409712500065	1.07671965709295e-24
-0.49927306196875065	1.0640917063699376e-24
-0.49921202681250065	1.0467945198474674e-24
-0.49915099165625065	1.0249032011184802e-24
-0.49908995650000065	9.985127034120771e-25
-0.49902892134375065	9.67737513186857e-25
-0.49896788618750065	9.32711187660495e-25
-0.49890685103125065	8.935856359141754e-25
-0.49884581587500065	8.50530661867864e-25
-0.49878478071875065	8.037331230018227e-25
-0.49872374556250065	7.533961122177862e-25
-0.49866271040625065	6.9973820197413975e-25
-0.49860167525000065	6.4299236754663525e-25
-0.49854064009375065	5.834051137367609e-25
-0.49847960493750065	5.2123530733335935e-25
-0.49841856978125065	4.567531609234308e-25
-0.49835753462500065	3.90238968869443e-25
-0.49829649946875065	3.2198196351616875e-25
-0.49823546431250065	2.5227913665736663e-25
-0.49817442915625065	1.8143377108654852e-25
-0.49811339400000065	1.0975429517065678e-25
-0.49805235884375065	3.755286404236833e-26
-0.49799132368750065	-3.4855850767399356e-26
-0.49793028853125065	-1.0715628433138878e-25
-0.49786925337500065	-1.7903313358741802e-25
-0.49780821821875065	-2.501725742703956e-25
-0.49774718306250065	-3.2026420605806724e-25
-0.49768614790625065	-3.890017146195069e-25
-0.49762511275000065	-4.560844451913424e-25
-0.49756407759375065	-5.212191232129623e-25
-0.49750304243750065	-5.841203823571014e-25
-0.49744200728125065	-6.44512517259156e-25
-0.49738097212500065	-7.021306374643926e-25
-0.49731993696875065	-7.567215937908616e-25
-0.49725890181250065	-8.080453488714139e-25
-0.49719786665625065	-8.5587573664032e-25
-0.49713683150000065	-9.000017376367002e-25
-0.49707579634375065	-9.402282738353693e-25
-0.49701476118750065	-9.76376947257837e-25
-0.49695372603125065	-1.0082870266350215e-24
-0.49689269087500065	-1.0358160495387468e-24
-0.49683165571875065	-1.0588404563756743e-24
-0.49677062056250065	-1.0772561138528468e-24
-0.49670958540625065	-1.0909788505584561e-24
-0.49664855025000065	-1.0999447892730231e-24
-0.49658751509375065	-1.1041105942870878e-24
-0.49652647993750065	-1.1034537605206094e-24
-0.49646544478125065	-1.097972671792276e-24
-0.49640440962500065	-1.0876866053956634e-24
-0.49634337446875065	-1.0726357020102513e-24
-0.49628233931250065	-1.0528807894536765e-24
-0.49622130415625065	-1.0285031319019251e-24
-0.49616026900000065	-9.996040739957705e-25
-0.49609923384375065	-9.663046340469468e-25
-0.49603819868750065	-9.28745039775805e-25
-0.49597716353125065	-8.870839980881553e-25
-0.49591612837500065	-8.414981216447191e-25
-0.49585509321875065	-7.921812855354743e-25
-0.49579405806250065	-7.3934348655676065e-25
-0.49573302290625065	-6.83210199416086e-25
-0.49567198775000065	-6.240214538846523e-25
-0.49561095259375065	-5.620304870514855e-25
-0.49554991743750065	-4.9750300263135285e-25
-0.49548888228125065	-4.307159269143112e-25
-0.49542784712500065	-3.6195593861634107e-25
-0.49536681196875065	-2.915187570327261e-25
-0.49530577681250065	-2.197074724280019e-25
-0.49524474165625065	-1.4683113004218099e-25
-0.49518370650000065	-7.320407707058662e-26
-0.49512267134375065	8.562771369047475e-28
-0.49506163618750065	7.503034208493943e-26
-0.49500060103125065	1.4899748939307367e-25
-0.49493956587500065	2.2243823156687696e-25
-0.49487853071875065	2.950347866358921e-25
-0.49481749556250065	3.6647285635014585e-25
-0.49475646040625065	4.364431184662465e-25
-0.49469542525000065	5.046420705635771e-25
-0.49463439009375065	5.70773931956961e-25
-0.49457335493750065	6.345515944361018e-25
-0.49451231978125065	6.956977512572678e-25
-0.49445128462500065	7.539465590406141e-25
-0.49439024946875065	8.090443775003266e-25
-0.49432921431250065	8.60750960704652e-25
-0.49426817915625065	9.088406946428083e-25
-0.49420714400000065	9.531034512123918e-25
-0.49414610884375065	9.933454132633522e-25
-0.49408507368750065	1.0293900296236971e-24
-0.49402403853125065	1.0610789419422919e-24
-0.49396300337500065	1.0882723380163877e-24
-0.49390196821875065	1.1108498250711506e-24
-0.49384093306250065	1.1287109092347332e-24
-0.49377989790625065	1.1417753786078763e-24
-0.49371886275000065	1.1499837859087477e-24
-0.49365782759375065	1.1532975074063327e-24
-0.49359679243750065	1.1516991698694098e-24
-0.49353575728125065	1.1451926035866062e-24
-0.49347472212500065	1.1338027966961103e-24
-0.49341368696875065	1.1175758953281717e-24
-0.49335265181250065	1.0965789984263098e-24
-0.49329161665625065	1.0708998329987937e-24
-0.49323058150000065	1.0406463667584891e-24
-0.49316954634375065	1.0059464844062666e-24
-0.49310851118750065	9.669473008184465e-25
-0.49304747603125065	9.238145470288566e-25
-0.49298644087500065	8.767319502012525e-25
-0.49292540571875065	8.259004504954277e-25
-0.49286437056250065	7.715371334308939e-25
-0.49280333540625065	7.138745226514605e-25
-0.49274230025000065	6.531596344138389e-25
-0.49268126509375065	5.896525129252244e-25
-0.49262022993750065	5.236255934010704e-25
-0.49255919478125065	4.5536227537485265e-25
-0.49249815962500065	3.8515560835435203e-25
-0.49243712446875065	3.1330737769231484e-25
-0.49237608931250065	2.4012628393942285e-25
-0.49231505415625065	1.6592716606349663e-25
-0.49225401900000065	9.102930757007859e-26
-0.49219298384375065	1.5754827185676022e-26
-0.49213194868750065	-5.957191675695236e-26
-0.49207091353125065	-1.3462665441821134e-25
-0.49200987837500065	-2.09086159263991e-25
-0.49194884321875065	-2.826294115133199e-25
-0.49188780806250065	-3.549396533589164e-25
-0.49182677290625065	-4.257051696423708e-25
-0.49176573775000065	-4.946208637503525e-25
-0.49170470259375065	-5.6138968680560625e-25
-0.49164366743750065	-6.257237823084096e-25
-0.49158263228125065	-6.873457501145552e-25
-0.49152159712500065	-7.45989941783153e-25
-0.49146056196875065	-8.014035935300108e-25
-0.49139952681250065	-8.533478142622032e-25
-0.49133849165625065	-9.015988168988934e-25
-0.49127745650000065	-9.459487751793367e-25
-0.49121642134375065	-9.862067132858526e-25
-0.49115538618750065	-1.0221994326637304e-24
-0.49109435103125065	-1.0537722380225291e-24
-0.49103331587500065	-1.0807895612666781e-24
-0.49097228071875065	-1.1031356439700082e-24
-0.49091124556250065	-1.1207149778919196e-24
-0.49085021040625065	-1.1334527425760994e-24
-0.49078917525000065	-1.1412952210092912e-24
-0.49072814009375065	-1.1442098876056184e-24
-0.49066710493750065	-1.1421856562286798e-24
-0.49060606978125065	-1.1352329733577848e-24
-0.49054503462500065	-1.1233836615464759e-24
-0.49048399946875065	-1.1066908571467338e-24
-0.49042296431250065	-1.0852288254281425e-24
-0.49036192915625065	-1.0590925411193894e-24
-0.49030089400000065	-1.0283973620187418e-24
-0.49023985884375065	-9.93278505879116e-25
-0.49017882368750065	-9.53890473430014e-25
-0.49011778853125065	-9.104063562420875e-25
-0.49005675337500065	-8.63017109882882e-25
-0.48999571821875065	-8.11930756020793e-25
-0.48993468306250065	-7.573713914402888e-25
-0.48987364790625065	-6.995783300474257e-25
-0.48981261275000065	-6.388049288701406e-25
-0.48975157759375065	-5.753176786049482e-25
-0.48969054243750065	-5.093948102129735e-25
-0.48962950728125065	-4.413251698416738e-25
-0.48956847212500065	-3.7140726397607947e-25
-0.48950743696875065	-2.9994729820363187e-25
-0.48944640181250065	-2.272584929754901e-25
-0.48938536665625065	-1.5365945450840603e-25
-0.48932433150000065	-7.94725075153684e-26
-0.48926329634375065	-5.023008490777843e-27
-0.48920226118750065	6.936289339502367e-26
-0.48914122603125065	1.433592180062109e-25
-0.48908019087500065	2.1664151068739993e-25
-0.48901915571875065	2.8888863903033523e-25
-0.48895812056250065	3.597837988487349e-25
-0.48889708540625065	4.290162907653641e-25
-0.48883605025000065	4.962824704584094e-25
-0.48877501509375065	5.612873234683362e-25
-0.48871397993750065	6.237459279193476e-25
-0.48865294478125065	6.83384196196312e-25
-0.48859190962500065	7.3994053903351e-25
-0.48853087446875065	7.931669146552806e-25
-0.48846983931250065	8.428297336727175e-25
-0.48840880415625065	8.887110632166594e-25
-0.48834776900000065	9.30609552080867e-25
-0.48828673384375065	9.683413584011209e-25
-0.48822569868750065	1.0017407858655876e-24
-0.48816466353125065	1.030661206940186e-24
-0.48810362837500065	1.054975718727135e-24
-0.48804259321875065	1.0745774866930228e-24
-0.48798155806250065	1.0893804830669862e-24
-0.48792052290625065	1.0993197264119155e-24
-0.48785948775000065	1.1043515704545636e-24
-0.48779845259375065	1.1044539995400385e-24
-0.48773741743750065	1.0996266274234634e-24
-0.48767638228125065	1.0898907655919808e-24
-0.48761534712500065	1.075289341244975e-24
-0.48755431196875065	1.0558866831167918e-24
-0.48749327681250065	1.031768279544203e-24
-0.48743224165625065	1.0030403950993082e-24
-0.48737120650000065	9.698296141149336e-25
-0.48731017134375065	9.32282330659256e-25
-0.48724913618750065	8.905640143498305e-25
-0.48718810103125065	8.448586142255024e-25
-0.48712706587500065	7.95367716254268e-25
-0.48706603071875065	7.4230957668563535e-25
-0.48700499556250065	6.859182998114902e-25
-0.48694396040625065	6.264427999894589e-25
-0.48688292525000065	5.641456109234022e-25
-0.48682189009375065	4.993017774845925e-25
-0.48676085493750065	4.3219781581633e-25
-0.48669981978125065	3.6313023058888026e-25
-0.48663878462500065	2.924042370634413e-25
-0.48657774946875065	2.203326558777036e-25
-0.48651671431250065	1.4723431058023052e-25
-0.48645567915625065	7.343267031809237e-26
-0.48639464400000065	-7.455596929177273e-28
-0.48633360884375065	-7.497173372934638e-26
-0.48627257368750065	-1.4891689251107928e-25
-0.48621153853125065	-2.222533684312591e-25
-0.48615050337500065	-2.946554949250487e-25
-0.48608946821875065	-3.658020099924034e-25
-0.48602843306250065	-4.353770886194784e-25
-0.48596739790625065	-5.030709876615517e-25
-0.48590636275000065	-5.685828628270019e-25
-0.48584532759375065	-6.31621016957242e-25
-0.48578429243750065	-6.91904240860365e-25
-0.48572325728125065	-7.491637887299674e-25
-0.48566222212500065	-8.031436862802598e-25
-0.48560118696875065	-8.536024838447752e-25
-0.48554015181250065	-9.003141054736684e-25
-0.48547911665625065	-9.43068689765593e-25
-0.48541808150000065	-9.816739244994131e-25
-0.48535704634375065	-1.0159555047514148e-24
-0.48529601118750065	-1.0457581266273683e-24
-0.48523497603125065	-1.0709461834643983e-24
-0.48517394087500065	-1.0914042354161936e-24
-0.48511290571875065	-1.1070377066696453e-24
-0.48505187056250065	-1.1177731763107369e-24
-0.48499083540625065	-1.1235587710568688e-24
-0.48492980025000065	-1.1243644471906865e-24
-0.48486876509375065	-1.1201820324778998e-24
-0.48480772993750065	-1.1110253800186741e-24
-0.48474669478125065	-1.0969302617294689e-24
-0.48468565962500065	-1.0779542368637699e-24
-0.48462462446875065	-1.0541764551334365e-24
-0.48456358931250065	-1.025697189079594e-24
-0.48450255415625065	-9.926376396696545e-25
-0.48444151900000065	-9.551391693048204e-25
-0.48438048384375065	-9.13362790170581e-25
-0.48431944868750065	-8.674886414428107e-25
-0.48425841353125065	-8.1771479644422005e-25
-0.48419737837500065	-7.642568599530458e-25
-0.48413634321875065	-7.073467701682602e-25
-0.48407530806250065	-6.472317054980574e-25
-0.48401427290625065	-5.841733638078583e-25
-0.48395323775000065	-5.1844648441407895e-25
-0.48389220259375065	-4.503376393327018e-25
-0.48383116743750065	-3.8014433355452924e-25
-0.48377013228125065	-3.081733630748929e-25
-0.48370909712500065	-2.347394231416562e-25
-0.48364806196875065	-1.601641769895955e-25
-0.48358702681250065	-8.477434498008975e-26
-0.48352599165625065	-8.900433428707918e-27
-0.48346495650000065	6.712454841227307e-26
-0.48340392134375065	1.429666652767903e-25
-0.48334288618750065	2.182927614824177e-25
-0.48328185103125065	2.9277154344213525e-25
-0.48322081587500065	3.660750959935161e-25
-0.48315978071875065	4.378808242985444e-25
-0.48309874556250065	5.078721342632993e-25
-0.48303771040625065	5.757403274977096e-25
-0.48297667525000065	6.411858719288113e-25
-0.48291564009375065	7.039195870948435e-25
-0.48285460493750065	7.636642263110034e-25
-0.48279356978125065	8.201551799717719e-25
-0.48273253462500065	8.731422602242608e-25
-0.48267149946875065	9.22390488536963e-25
-0.48261046431250065	9.676808993029705e-25
-0.48254942915625065	1.0088122355196804e-24
-0.48248839400000065	1.0456010637525725e-24
-0.48242735884375065	1.0778829653232378e-24
-0.48236632368750065	1.1055134826595001e-24
-0.48230528853125065	1.1283681928331263e-24
-0.48224425337500065	1.1463438376349318e-24
-0.48218321821875065	1.1593584888934676e-24
-0.48212218306250065	1.1673518905455111e-24
-0.48206114790625065	1.1702859821021158e-24
-0.48200011275000065	1.1681448344034679e-24
-0.48193907759375065	1.1609348313183647e-24
-0.48187804243750065	1.1486846779250575e-24
-0.48181700728125065	1.1314452608734425e-24
-0.48175597212500065	1.1092894096515477e-24
-0.48169493696875065	1.0823116035853954e-24
-0.48163390181250065	1.0506276366227406e-24
-0.48157286665625065	1.0143740000364434e-24
-0.48151183150000065	9.737073427741405e-25
-0.48145079634375065	9.288038494066287e-25
-0.48138976118750065	8.798584167224613e-25
-0.48132872603125065	8.270837417234184e-25
-0.48126769087500065	7.7070952601943735e-25
-0.48120665571875065	7.109814427169045e-25
-0.48114562056250065	6.481598760209665e-25
-0.48108458540625065	5.825190949729182e-25
-0.48102355025000065	5.143458370599077e-25
-0.48096251509375065	4.439380161268164e-25
-0.48090147993750065	3.716035497705177e-25
-0.48084044478125065	2.9765905855830077e-25
-0.48077940962500065	2.2242815039254837e-25
-0.48071837446875065	1.462402839741929e-25
-0.48065733931250065	6.942952290547371e-26
-0.48059630415625065	-7.667782269490438e-27
-0.48053526900000065	-8.471339643686257e-26
-0.48047423384375065	-1.6136936743682385e-25
-0.48041319868750065	-2.372996081569017e-25
-0.48035216353125065	-3.121706888572118e-25
-0.48029112837500065	-3.856541448160224e-25
-0.48023009321875065	-4.574272923104512e-25
-0.48016905806250065	-5.271750578744424e-25
-0.48010802290625065	-5.945911411246998e-25
-0.48004698775000065	-6.593794196142576e-25
-0.47998595259375065	-7.212554476929695e-25
-0.47992491743750065	-7.799473698798098e-25
-0.47986388228125065	-8.351974582139202e-25
-0.47980284712500065	-8.867630744413025e-25
-0.47974181196875065	-9.34417791037179e-25
-0.47968077681250065	-9.779524110862808e-25
-0.47961974165625065	-1.0171759549465698e-24
-0.47955870650000065	-1.0519163091508772e-24
-0.47949767134375065	-1.0820212553454724e-24
-0.47943663618750065	-1.1073590556045557e-24
-0.47937560103125065	-1.1278188774018804e-24
-0.47931456587500065	-1.1433115978449573e-24
-0.47925353071875065	-1.1537699361882591e-24
-0.47919249556250065	-1.1591489056391097e-24
-0.47913146040625065	-1.1594260097964322e-24
-0.47907042525000065	-1.1546012561425163e-24
-0.47900939009375065	-1.1446972974027643e-24
-0.47894835493750065	-1.1297592503652283e-24
-0.47888731978125065	-1.1098544981483637e-24
-0.47882628462500065	-1.0850724794969695e-24
-0.47876524946875065	-1.055524225578754e-24
-0.47870421431250065	-1.0213418655437206e-24
-0.47864317915625065	-9.826781482278627e-25
-0.47858214400000065	-9.397056644403066e-25
-0.47852110884375065	-8.926161001962687e-25
-0.47846007368750065	-8.416194839347976e-25
-0.47839903853125065	-7.869431830407502e-25
-0.47833800337500065	-7.288308559468718e-25
-0.47827696821875065	-6.67541469015562e-25
-0.47821593306250065	-6.033482323725205e-25
-0.47815489790625065	-5.365370795708785e-25
-0.47809386275000065	-4.674056427839213e-25
-0.47803282759375065	-3.962621499312972e-25
-0.47797179243750065	-3.234234171370918e-25
-0.47791075728125065	-2.4921398400737835e-25
-0.47784972212500065	-1.7396474890419592e-25
-0.47778868696875065	-9.801088122895866e-26
-0.47772765181250065	-2.1690876382576412e-26
-0.47766661665625065	5.465489928892885e-26
-0.47760558150000065	1.3068618915918778e-25
-0.47754454634375065	2.0606415858658912e-25
-0.47748351118750065	2.80452478124076e-25
-0.47742247603125065	3.535194217045133e-25
-0.47736144087500065	4.249392695566309e-25
-0.47730040571875065	4.943932224579396e-25
-0.47723937056250065	5.615714022535986e-25
-0.47717833540625065	6.261741444437084e-25
-0.47711730025000065	6.879129838242857e-25
-0.47705626509375065	7.465122424295504e-25
-0.47699522993750065	8.017103718797907e-25
-0.47693419478125065	8.532607864094025e-25
-0.47687315962500065	9.009330914410304e-25
-0.47681212446875065	9.44514348201017e-25
-0.47675108931250065	9.838097138784521e-25
-0.47669005415625065	1.0186433939214235e-24
-0.47662901900000065	1.0488596400406354e-24
-0.47656798384375065	1.0743231842124502e-24
-0.47650694868750065	1.0949199376363439e-24
-0.47644591353125065	1.110557656274624e-24
-0.47638487837500065	1.1211661076337686e-24
-0.47632384321875065	1.126697576400924e-24
-0.47626280806250065	1.1271270706868614e-24
-0.47620177290625065	1.122452313762201e-24
-0.47614073775000065	1.1126939333614449e-24
-0.47607970259375065	1.097895276493301e-24
-0.47601866743750065	1.078122232091675e-24
-0.47595763228125065	1.0534629803825464e-24
-0.47589659712500065	1.0240275941513694e-24
-0.47583556196875065	9.89947572387958e-25
-0.47577452681250065	9.513751877187088e-25
-0.47571349165625065	9.084829211937196e-25
-0.47565245650000065	8.61462717873022e-25
-0.47559142134375065	8.105248733647846e-25
-0.47553038618750065	7.558975265741311e-25
-0.47546935103125065	6.978253584767201e-25
-0.47540831587500065	6.3656838806307e-25
-0.47534728071875065	5.724013760405364e-25
-0.47528624556250065	5.056118513963035e-25
-0.47522521040625065	4.364994426244785e-25
-0.47516417525000065	3.653743067808066e-25
-0.47510314009375065	2.9255552093811576e-25
-0.47504210493750065	2.18370278297377e-25
-0.47498106978125065	1.431517119650064e-25
-0.47492003462500065	6.72378832983066e-26
-0.47485899946875065	-9.029850180601495e-27
-0.47479796431250065	-8.530846752758403e-26
-0.47473692915625065	-1.6125465850735427e-25
-0.47467589400000065	-2.365264311310419e-25
-0.47461485884375065	-3.1078469361918445e-25
-0.47455382368750065	-3.8369470200544304e-25
-0.47449278853125065	-4.5492749932503e-25
-0.47443175337500065	-5.2416168713143145e-25
-0.47437071821875065	-5.910843300536821e-25
-0.47430968306250065	-6.553929333430241e-25
-0.47424864790625065	-7.167966140065804e-25
-0.47418761275000065	-7.750169694680065e-25
-0.47412657759375065	-8.29790120105251e-25
-0.47406554243750065	-8.808673276904735e-25
-0.47400450728125065	-9.280161515149458e-25
-0.47394347212500065	-9.710218602008668e-25
-0.47388243696875065	-1.0096880077969236e-24
-0.47382140181250065	-1.0438375436241965e-24
-0.47376036665625065	-1.0733135367113579e-24
-0.47369933150000065	-1.0979798855487591e-24
-0.47363829634375065	-1.1177220828858237e-24
-0.47357726118750065	-1.1324474625695496e-24
-0.47351622603125065	-1.1420858634192172e-24
-0.47345519087500065	-1.146589949471013e-24
-0.47339415571875065	-1.1459352568226167e-24
-0.47333312056250065	-1.1401204667461752e-24
-0.47327208540625065	-1.12916743169775e-24
-0.47321105025000065	-1.1131210030505621e-24
-0.47315001509375065	-1.092048882100849e-24
-0.47308897993750065	-1.0660414007857682e-24
-0.47302794478125065	-1.0352109798263031e-24
-0.47296690962500065	-9.996918000349807e-25
-0.47290587446875065	-9.596391459948826e-25
-0.47284483931250065	-9.152286152707632e-25
-0.47278380415625065	-8.666556076669624e-25
-0.47272276900000065	-8.141342042319541e-25
-0.47266173384375065	-7.578962842520528e-25
-0.47260069868750065	-6.981906770300152e-25
-0.47253966353125065	-6.352817979635906e-25
-0.47247862837500065	-5.694485766106235e-25
-0.47241759321875065	-5.009833274127622e-25
-0.47235655806250065	-4.301903026971247e-25
-0.47229552290625065	-3.5738434828715798e-25
-0.47223448775000065	-2.828895759423998e-25
