Time	Frequency
-0.5000405647499946	0.40520152085487565
-0.4999795295937446	0.3925248505972825
-0.4999184944374946	0.3780337735405595
-0.4998574592812446	0.36179658472501736
-0.4997964241249946	0.3438896373369245
-0.4997353889687446	0.3243971839420578
-0.4996743538124946	0.3034107688106184
-0.4996133186562446	0.2810288510661528
-0.4995522834999946	0.25735658154526303
-0.4994912483437446	0.23250493949019493
-0.4994302131874946	0.20659045214542335
-0.4993691780312446	0.1797346831406093
-0.4993081428749946	0.1520635513040498
-0.4992471077187446	0.12370671571321003
-0.4991860725624946	0.09479713127285573
-0.4991250374062446	0.0654703912986795
-0.4990640022499946	0.03586384346727737
-0.4990029670937446	0.0061163405710395625
-0.4989419319374946	-0.023632555723224476
-0.4988808967812446	-0.05324349333236079
-0.4988198616249946	-0.08257758053580355
-0.4987588264687446	-0.11149712335508596
-0.4986977913124946	-0.1398665525122328
-0.4986367561562446	-0.1675527628126118
-0.4985757209999946	-0.19442572539439718
-0.4985146858437446	-0.22035930548363183
-0.4984536506874946	-0.24523179068646347
-0.4983926155312446	-0.2689262225924603
-0.4983315803749946	-0.2913312444821684
-0.4982705452187446	-0.31234163146010224
-0.4982095100624946	-0.3318583965524999
-0.4981484749062446	-0.3497897031533309
-0.4980874397499946	-0.36605114166419267
-0.4980264045937446	-0.3805659471539401
-0.4979653694374946	-0.39326565890494486
-0.4979043342812446	-0.40409023252987947
-0.4978432991249946	-0.41298841081378795
-0.4977822639687446	-0.4199179324838305
-0.4977212288124946	-0.42484575253236323
-0.4976601936562446	-0.42774824936483946
-0.4975991584999946	-0.4286111887890354
-0.4975381233437446	-0.4274299705624421
-0.4974770881874946	-0.42420956957359296
-0.4974160530312446	-0.4189644913892825
-0.4973550178749946	-0.4117187707426096
-0.4972939827187446	-0.40250582274888547
-0.4972329475624946	-0.3913683206904412
-0.4971719124062446	-0.37835795634162367
-0.4971108772499946	-0.36353525767626393
-0.4970498420937446	-0.34696928059275417
-0.4969888069374946	-0.3287372657711086
-0.4969277717812446	-0.3089243509417914
-0.4968667366249946	-0.28762310626746024
-0.4968057014687446	-0.2649331287043085
-0.4967446663124946	-0.24096060093655208
-0.4966836311562446	-0.21581781139462852
-0.4966225959999946	-0.18962251502278915
-0.4965615608437446	-0.16249754481416578
-0.4965005256874946	-0.13457019866482078
-0.4964394905312446	-0.105971477003153
-0.4963784553749946	-0.07683576618190273
-0.4963174202187446	-0.04729998046482403
-0.4962563850624946	-0.017502959523661182
-0.4961953499062446	0.012415034321740718
-0.4961343147499946	0.042313192063071665
-0.4960732795937446	0.07205064683059799
-0.4960122444374946	0.10148716371565002
-0.4959512092812446	0.1304839224816877
-0.4958901741249946	0.1589039662634472
-0.4958291389687446	0.18661299602498183
-0.4957681038124946	0.2134799899000893
-0.4957070686562446	0.2393776746995098
-0.4956460334999946	0.2641833410318241
-0.4955849983437446	0.2877792932922363
-0.4955239631874946	0.3100533144220136
-0.4954629280312446	0.330899440315416
-0.4954018928749946	0.35021829765817675
-0.4953408577187446	0.36791748389933093
-0.4952798225624946	0.38391223945169
-0.4952187874062446	0.3981257282647389
-0.4951577522499946	0.4104892990268767
-0.4950967170937446	0.4209429997284949
-0.4950356819374946	0.42943580983973273
-0.4949746467812446	0.4359257308537549
-0.4949136116249946	0.4403802277638593
-0.4948525764687446	0.4427762630119698
-0.4947915413124946	0.4431003370844874
-0.4947305061562446	0.4413487389518359
-0.4946694709999946	0.43752742435792175
-0.4946084358437446	0.4316520472885664
-0.4945474006874946	0.4237479026436291
-0.4944863655312446	0.41384978314868964
-0.4944253303749946	0.40200185882983064
-0.4943642952187446	0.38825745324079164
-0.4943032600624946	0.3726787920930164
-0.4942422249062446	0.35533673409162553
-0.4941811897499946	0.33631047455159707
-0.4941201545937446	0.3156871089491614
-0.4940591194374946	0.2935612411618247
-0.4939980842812446	0.27003468047176893
-0.4939370491249946	0.24521577318787754
-0.4938760139687446	0.21921892948741162
-0.4938149788124946	0.19216438046180043
-0.4937539436562446	0.16417712992280106
-0.4936929084999946	0.1353867366978621
-0.4936318733437446	0.10592673116919808
-0.4935708381874946	0.07593358616879053
-0.4935098030312446	0.045546653333824946
-0.4934487678749946	0.014907064051126599
-0.4933877327187446	-0.015842790125434048
-0.4933266975624946	-0.046559801473880724
-0.4932656624062446	-0.07710102678989472
-0.4932046272499946	-0.10732414213709165
-0.4931435920937446	-0.13708834127399866
-0.4930825569374946	-0.16625477463625937
-0.4930215217812446	-0.19468729080852745
-0.4929604866249946	-0.22225322238045803
-0.4928994514687446	-0.24882369545739452
-0.4928384163124946	-0.27427445579131576
-0.4927773811562446	-0.2984865522533427
-0.4927163459999946	-0.32134652098782623
-0.4926553108437446	-0.3427472792141869
-0.4925942756874946	-0.36258857041728165
-0.4925332405312446	-0.3807771868823393
-0.4924722053749946	-0.39722773490306784
-0.4924111702187446	-0.41186283585523836
-0.4923501350624946	-0.42461358064269616
-0.4922890999062446	-0.43541981602970414
-0.4922280647499946	-0.44423040995125174
-0.4921670295937446	-0.4510036221677235
-0.4921059944374946	-0.455707110552789
-0.4920449592812446	-0.45831823879912004
-0.4919839241249946	-0.4588241596983187
-0.4919228889687446	-0.4572218020329436
-0.4918618538124946	-0.4535179895639217
-0.4918008186562446	-0.447729359845414
-0.4917397834999946	-0.4398822885187419
-0.4916787483437446	-0.4300128041053695
-0.4916177131874946	-0.41816637732284534
-0.4915566780312446	-0.40439777006740896
-0.4914956428749946	-0.3887707081033006
-0.4914346077187446	-0.3713576775338364
-0.4913735725624946	-0.3522395045638209
-0.4913125374062446	-0.3315049824983584
-0.4912515022499946	-0.30925063450224727
-0.4911904670937446	-0.28557990439540676
-0.4911294319374946	-0.2606030284124659
-0.4910683967812446	-0.23443645860068657
-0.4910073616249946	-0.20720199565215927
-0.4909463264687446	-0.1790266749419066
-0.4908852913124946	-0.15004193461487708
-0.4908242561562446	-0.12038292928145698
-0.4907632209999946	-0.09018811128178479
-0.4907021858437446	-0.05959835664514426
-0.4906411506874946	-0.02875652015809985
-0.4905801155312446	0.002193378229014424
-0.4905190803749946	0.03310688857451965
-0.4904580452187446	0.06383953783204968
-0.4903970100624946	0.09424780514416217
-0.4903359749062446	0.12418967829004102
-0.4902749397499946	0.1535252578367437
-0.4902139045937446	0.1821175094792266
-0.4901528694374946	0.2098328985519664
-0.4900918342812446	0.2365419843068457
-0.4900307991249946	0.26211998850346424
-0.4899697639687446	0.28644755131905214
-0.4899087288124946	0.30941112210730864
-0.4898476936562446	0.33090349476906744
-0.4897866584999946	0.3508244994377444
-0.4897256233437446	0.36908130013434187
-0.4896645881874946	0.3855888453297991
-0.4896035530312446	0.40027036093041024
-0.4895425178749946	0.41305769373980444
-0.4894814827187446	0.423891548904679
-0.4894204475624946	0.4327218229908238
-0.4893594124062446	0.4395079388355604
-0.4892983772499946	0.44421888208536
-0.4892373420937446	0.44683341088178585
-0.4891763069374946	0.44734021869255935
-0.4891152717812446	0.44573791228423526
-0.4890542366249946	0.442035052452895
-0.4889932014687446	0.43625009918588453
-0.4889321663124946	0.42841137647040844
-0.4888711311562446	0.4185568767876807
-0.4888100959999946	0.4067341086306405
-0.4887490608437446	0.39299993158636376
-0.4886880256874946	0.37742015872450085
-0.4886269905312446	0.3600693977843262
-0.4885659553749946	0.3410306211438689
-0.4885049202187446	0.3203947329516023
-0.4884438850624946	0.2982602791251362
-0.4883828499062446	0.27473282856335723
-0.4883218147499946	0.24992459178839754
-0.4882607795937446	0.22395386049886204
-0.4881997444374946	0.1969443279898837
-0.4881387092812446	0.16902481713385678
-0.4880776741249946	0.14032829100723054
-0.4880166389687446	0.11099140766812993
-0.4879556038124946	0.08115410976721772
-0.4878945686562446	0.05095834202652966
-0.4878335334999946	0.02054807632940822
-0.4877724983437446	-0.009931722275814084
-0.4877114631874946	-0.040336014933493494
-0.4876504280312446	-0.07051972434864248
-0.4875893928749946	-0.10033902499274858
-0.4875283577187446	-0.12965180113348462
-0.4874673225624946	-0.15831825228751356
-0.4874062874062446	-0.18620164803526248
-0.4873452522499946	-0.21316894720392535
-0.4872842170937446	-0.2390914983860495
-0.4872231819374946	-0.26384550799948003
-0.4871621467812446	-0.28731279497850404
-0.4871011116249946	-0.3093811813716033
-0.4870400764687446	-0.3299452045989576
-0.4869790413124946	-0.34890652176776443
-0.4869180061562446	-0.36617430532774764
-0.4868569709999946	-0.3816658991595976
-0.4867959358437446	-0.39530698031314365
-0.4867349006874946	-0.40703203418188233
-0.4866738655312446	-0.4167846850735079
-0.4866128303749946	-0.4245178959268366
-0.4865517952187446	-0.43019425259858546
-0.4864907600624946	-0.4337861112536787
-0.4864297249062446	-0.4352757712553588
-0.4863686897499946	-0.4346555233609891
-0.4863076545937446	-0.4319277073709088
-0.4862466194374946	-0.4271047284892842
-0.4861855842812446	-0.4202089687975704
-0.4861245491249946	-0.4112726946119239
-0.4860635139687446	-0.4003379217820339
-0.4860024788124946	-0.38745622658093043
-0.4859414436562446	-0.3726884543070505
-0.4858804084999946	-0.3561044985056939
-0.4858193733437446	-0.33778296524772816
-0.4857583381874946	-0.31781072717286235
-0.4856973030312446	-0.2962826244922691
-0.4856362678749946	-0.27330096101996887
-0.4855752327187446	-0.24897498378458777
-0.4855141975624946	-0.22342048466793407
-0.4854531624062446	-0.19675910946959818
-0.4853921272499946	-0.16911787423644506
-0.4853310920937446	-0.14062859310686082
-0.4852700569374946	-0.11142710542127461
-0.4852090217812446	-0.08165281330929809
-0.4851479866249946	-0.05144791459341321
-0.4850869514687446	-0.020956719790173564
-0.4850259163124946	0.009674977977000298
-0.4849648811562446	0.040300593906660735
-0.4849038459999946	0.07077354118252328
-0.4848428108437446	0.10094782237271555
-0.4847817756874946	0.1306787173310869
-0.4847207405312446	0.15982368362689947
-0.4846597053749946	0.18824262389318336
-0.4845986702187446	0.2157990222040822
-0.4845376350624946	0.24236036603406344
-0.4844765999062446	0.26779853238300694
-0.4844155647499946	0.29199101218595186
-0.4843545295937446	0.31482095198703625
-0.4842934944374946	0.33617785781234283
-0.4842324592812446	0.3559583336006419
-0.4841714241249946	0.37406629566904337
-0.4841103889687446	0.3904135872143359
-0.4840493538124946	0.4049204017594392
-0.4839883186562446	0.417515603317241
-0.4839272834999946	0.42813712436208007
-0.4838662483437446	0.4367322384829893
-0.4838052131874946	0.44325784026703313
-0.4837441780312446	0.4476806528397404
-0.4836831428749946	0.4499773531355007
-0.4836221077187446	0.4501347576455989
-0.4835610725624946	0.44814984312298817
-0.4835000374062446	0.44402976503262254
-0.4834390022499946	0.4377918755541484
-0.4833779670937446	0.42946360041527987
-0.4833169319374946	0.41908232832452325
-0.4832558967812446	0.4066952693512464
-0.4831948616249946	0.39235918269105713
-0.4831338264687446	0.3761401639078363
-0.4830727913124946	0.3581133101654528
-0.4830117561562446	0.33836236089687394
-0.4829507209999946	0.31697933999016714
-0.4828896858437446	0.2940640844384594
-0.4828286506874946	0.2697238110756722
-0.4827676155312446	0.24407255051823445
-0.4827065803749946	0.2172306959605427
-0.4826455452187446	0.18932438428816692
-0.4825845100624946	0.16048485271626564
-0.4825234749062446	0.13084792460727573
-0.4824624397499946	0.10055329513666714
-0.4824014045937446	0.0697438884666112
-0.4823403694374946	0.038565115077978565
-0.4822793342812446	0.007164329713562056
-0.4822182991249946	-0.02430996799925618
-0.4821572639687446	-0.05570893615304275
-0.4820962288124946	-0.0868838680459108
-0.4820351936562446	-0.11768706421647633
-0.4819741584999946	-0.14797249928079945
-0.4819131233437446	-0.17759655463314244
-0.4818520881874946	-0.20641861769107311
-0.4817910530312446	-0.23430174171071255
-0.4817300178749946	-0.26111349451352267
-0.4816689827187446	-0.28672637270163887
-0.4816079475624946	-0.311018480896286
-0.4815469124062446	-0.3338741464106574
-0.4814858772499946	-0.35518445874055715
-0.4814248420937446	-0.37484782429966024
-0.4813638069374946	-0.3927703241603184
-0.4813027717812446	-0.40886632577819054
-0.4812417366249946	-0.4230588569819116
-0.4811807014687446	-0.4352798602907798
-0.4811196663124946	-0.4454706717414576
-0.4810586311562446	-0.45358224016407755
-0.4809975959999946	-0.45957535927355514
-0.4809365608437446	-0.46342086126283466
-0.4808755256874946	-0.4650997729538442
-0.4808144905312446	-0.4646034380985941
-0.4807534553749946	-0.4619334843703004
-0.4806924202187446	-0.45710190297476405
-0.4806313850624946	-0.4501309578796129
-0.4805703499062446	-0.4410530818101791
-0.4805093147499946	-0.4299107426193955
-0.4804482795937446	-0.4167562322041115
-0.4803872444374946	-0.40165144164549466
-0.4803262092812446	-0.38466751926294157
-0.4802651741249946	-0.36588462760339585
-0.4802041389687446	-0.3453914718906482
-0.4801431038124946	-0.3232848967930628
-0.4800820686562446	-0.29966953441714483
-0.4800210334999946	-0.27465714490740945
-0.4799599983437446	-0.24836615807183518
-0.4798989631874946	-0.22092121141505205
-0.4798379280312446	-0.1924523952006647
-0.4797768928749946	-0.16309463875909738
-0.4797158577187446	-0.13298730629842243
-0.4796548225624946	-0.10227324272707579
-0.4795937874062446	-0.07109815973052744
-0.4795327522499946	-0.039610156581533704
-0.4794717170937446	-0.0079587024895385
-0.4794106819374946	0.023705867546847132
-0.4793496467812446	0.05523313002252671
-0.4792886116249946	0.08647332458903774
-0.4792275764687446	0.11727799331398701
-0.4791665413124946	0.14750079182822642
-0.4791055061562446	0.17699810293765625
-0.4790444709999946	0.2056297613350561
-0.4789834358437446	0.23325969110731437
-0.4789224006874946	0.259756654634663
-0.4788613655312446	0.28499476427246834
-0.4788003303749946	0.3088541235744978
-0.4787392952187446	0.33122146092398475
-0.4786782600624946	0.3519905650545813
-0.4786172249062446	0.37106296322790294
-0.4785561897499946	0.38834817096854646
-0.4784951545937446	0.4037642781686682
-0.4784341194374946	0.41723841210376006
-0.4783730842812446	0.42870683977719654
-0.4783120491249946	0.4381155208970441
-0.4782510139687446	0.44542027108958715
-0.4781899788124946	0.4505869261169629
-0.4781289436562446	0.4535916267701771
-0.4780679084999946	0.4544208346479177
-0.4780068733437446	0.4530714428169513
-0.4779458381874946	0.44955080053951174
-0.4778848030312446	0.44387666956792204
-0.4778237678749946	0.43607712634096496
-0.4777627327187446	0.4261904593113874
-0.4777016975624946	0.4142649967298574
-0.4776406624062446	0.40035879267517094
-0.4775796272499946	0.38453949887028527
-0.4775185920937446	0.3668839099261878
-0.4774575569374946	0.34747761575126956
-0.4773965217812446	0.32641473466439824
-0.4773354866249946	0.3037972202446919
-0.4772744514687446	0.2797346025506281
-0.4772134163124946	0.2543433602681101
-0.4771523811562446	0.22774627013314835
-0.4770913459999946	0.20007209212666038
-0.4770303108437446	0.17145466077954905
-0.4769692756874946	0.14203233135572535
-0.4769082405312446	0.11194751679346215
-0.4768472053749946	0.08134566646895391
-0.4767861702187446	0.05037474511767402
-0.4767251350624946	0.019184693618353486
-0.4766640999062446	-0.012073659879828719
-0.4766030647499946	-0.04324914731638982
-0.4765420295937446	-0.07419080296138252
-0.4764809944374946	-0.10474888916446132
-0.4764199592812446	-0.13477555438190147
-0.4763589241249946	-0.1641253289413965
-0.4762978889687446	-0.1926560962495041
-0.4762368538124946	-0.22022964266416103
-0.4761758186562446	-0.24671231308517666
-0.4761147834999946	-0.2719757839342659
-0.4760537483437446	-0.29589744057504874
-0.4759927131874946	-0.3183612761259814
-0.4759316780312446	-0.3392582368957838
-0.4758706428749946	-0.3584867574906942
-0.4758096077187446	-0.37595343092938077
-0.4757485725624946	-0.39157322303071773
-0.4756875374062446	-0.4052700796673247
-0.4756265022499946	-0.4169772064075769
-0.4755654670937446	-0.4266373792769982
-0.4755044319374946	-0.43420329848509004
-0.4754433967812446	-0.439637761615626
-0.4753823616249946	-0.4429138514597595
-0.4753213264687446	-0.44401510472578753
-0.4752602913124946	-0.4429355822726838
-0.4751992561562446	-0.4396798593866748
-0.4751382209999946	-0.4342630882801087
-0.4750771858437446	-0.4267108662582077
-0.4750161506874946	-0.4170591312524577
-0.4749551155312446	-0.40535402982766955
-0.4748940803749946	-0.3916516346868288
-0.4748330452187446	-0.3760177423662695
-0.4747720100624946	-0.3585275179563071
-0.4747109749062446	-0.33926515247536587
-0.4746499397499946	-0.3183234840834747
-0.4745889045937446	-0.29580347206695706
-0.4745278694374946	-0.27181383481590116
-0.4744668342812446	-0.24647044485242406
-0.4744057991249946	-0.2198957538264609
-0.4743447639687446	-0.1922183231183513
-0.4742837288124946	-0.16357201007235328
-0.4742226936562446	-0.13409558205664374
-0.4741616584999946	-0.10393182255815568
-0.4741006233437446	-0.07322685419301316
-0.4740395881874946	-0.042129749868348686
-0.4739785530312446	-0.01079125907932792
-0.4739175178749946	0.02063640421827801
-0.4738564827187446	0.05200045595418531
-0.4737954475624946	0.08314856638338128
-0.4737344124062446	0.11392909988143418
-0.4736733772499946	0.14419225001491162
-0.4736123420937446	0.17379058220995205
-0.4735513069374946	0.20257973860357126
-0.4734902717812446	0.23041929554489857
-0.4734292366249946	0.2571732021564365
-0.4733682014687446	0.28271064433946697
-0.4733071663124946	0.30690665618150853
-0.4732461311562446	0.32964256111599
-0.4731850959999946	0.3508067103917442
-0.4731240608437446	0.3702951060942242
-0.4730630256874946	0.38801163261440375
-0.4730019905312446	0.40386870438621136
-0.4729409553749946	0.41778779482365325
-0.4728799202187446	0.4296995817507309
-0.4728188850624946	0.4395444327606653
-0.4727578499062446	0.44727271290597675
-0.4726968147499946	0.4528449767086296
-0.4726357795937446	0.4562321616290186
-0.4725747444374946	0.4574157782077001
-0.4725137092812446	0.45638799440599154
-0.4724526741249946	0.4531516442696905
-0.4723916389687446	0.44772026631147127
-0.4723306038124946	0.4401180342423807
-0.4722695686562446	0.4303796159854371
-0.4722085334999946	0.41855005411938023
-0.4721474983437446	0.40468455298500505
-0.4720864631874946	0.3888481511257901
-0.4720254280312446	0.37111551949761473
-0.4719643928749946	0.35157055530516923
-0.4719033577187446	0.33030589205107463
-0.4718423225624946	0.30742266470531066
-0.4717812874062446	0.28302984573725054
-0.4717202522499946	0.2572437310515076
-0.4716592170937446	0.23018755277335423
-0.4715981819374946	0.2019906676013663
-0.4715371467812446	0.17278807987511713
-0.4714761116249946	0.1427197420704741
-0.4714150764687446	0.11192988257158343
-0.4713540413124946	0.08056633193240892
-0.4712930061562446	0.048779749318050444
-0.4712319709999946	0.016722983047937283
-0.4711709358437446	-0.015449721299281127
-0.4711099006874946	-0.04758345627636478
-0.4710488655312446	-0.07952348465486705
-0.4709878303749946	-0.11111571792611973
-0.4709267952187446	-0.14220781006265365
-0.4708657600624946	-0.1726497816479038
-0.4708047249062446	-0.2022944401214622
-0.4707436897499946	-0.2309986655374803
-0.4706826545937446	-0.2586236571406521
-0.4706216194374946	-0.2850356429193376
-0.4705605842812446	-0.31010682592849437
-0.4704995491249946	-0.3337157599427718
-0.4704385139687446	-0.35574787564451343
-0.4703774788124946	-0.3760962844810721
-0.4703164436562446	-0.39466220742179886
-0.4702554084999946	-0.4113552641024033
-0.4701943733437446	-0.42609422405205816
-0.4701333381874946	-0.4388072165525351
-0.4700723030312446	-0.44943210261409744
-0.4700112678749946	-0.45791682106260195
-0.4699502327187446	-0.46421963085327334
-0.4698891975624946	-0.4683093402193951
-0.4698281624062446	-0.47016537743361153
-0.4697671272499946	-0.4697780342425929
-0.4697060920937446	-0.4671484038547574
