Time	Frequency
-0.5000575685937534	-0.19309108451616555
-0.4999965334375034	-0.17709185756253357
-0.4999354982812534	-0.16057187852324498
-0.4998744631250034	-0.14357846920646516
-0.4998134279687534	-0.1261603306818064
-0.4997523928125034	-0.10836742036650167
-0.4996913576562534	-0.09025074008854977
-0.4996303225000034	-0.07186229753430244
-0.4995692873437534	-0.05325484501737731
-0.4995082521875034	-0.03448183052712272
-0.4994472170312534	-0.015597179590959543
-0.4993861818750034	0.003344851501551582
-0.4993251467187534	0.022289760110841758
-0.4992641115625034	0.0411830940444713
-0.4992030764062534	0.05997045126060478
-0.4991420412500034	0.07859770866813204
-0.4990810060937534	0.09701124560416993
-0.4990199709375034	0.11515792088605417
-0.4989589357812534	0.1329853965870586
-0.4988979006250034	0.15044223658069458
-0.4988368654687534	0.16747793451526655
-0.4987758303125034	0.18404330278236378
-0.4987147951562534	0.20009035494228442
-0.4986537600000034	0.21557259653781063
-0.4985927248437534	0.23044517145422777
-0.4985316896875034	0.24466485711567415
-0.4984706545312534	0.25819034821298376
-0.4984096193750034	0.27098223636856
-0.4983485842187534	0.283003249115608
-0.4982875490625034	0.29421825385778766
-0.4982265139062534	0.3045944027094065
-0.4981654787500034	0.31410127225382606
-0.4981044435937534	0.32271084158793834
-0.4980434084375034	0.3303976872235275
-0.4979823732812534	0.3371389869739156
-0.4979213381250034	0.34291461411932656
-0.4978603029687534	0.34770719557362156
-0.4977992678125034	0.3515021374122976
-0.4977382326562534	0.35428772351743454
-0.4976771975000034	0.35605508298363225
-0.4976161623437534	0.3567982629372624
-0.4975551271875034	0.35651424835266
-0.4974940920312534	0.35520293274236026
-0.4974330568750034	0.3528671653263021
-0.4973720217187534	0.3495127208562715
-0.4973109865625034	0.3451482862959978
-0.4972499514062534	0.3397854431109573
-0.4971889162500034	0.3334386360897746
-0.4971278810937534	0.3261251284023432
-0.4970668459375034	0.317864957140333
-0.4970058107812534	0.308680883535568
-0.4969447756250034	0.29859831469103093
-0.4968837404687534	0.28764525268477004
-0.4968227053125034	0.2758521946071819
-0.4967616701562534	0.26325206303703164
-0.4967006350000034	0.24988011439749233
-0.4966395998437534	0.235773814920384
-0.4965785646875034	0.22097277681376218
-0.4965175295312534	0.2055186108057639
-0.4964564943750034	0.18945480780100882
-0.4963954592187534	0.1728266648320476
-0.4963344240625034	0.1556810822640287
-0.4962733889062534	0.13806648445674122
-0.4962123537500034	0.120032680481219
-0.4961513185937534	0.1016306868921687
-0.4960902834375034	0.0829126175855925
-0.4960292482812534	0.06393150828281835
-0.4959682131250034	0.04474122680031074
-0.4959071779687534	0.025396186662238803
-0.4958461428125034	0.005951367733243053
-0.4957851076562534	-0.013537963074763001
-0.4957240725000034	-0.03301642994020655
-0.4956630373437534	-0.05242853503872406
-0.4956020021875034	-0.0717190660166679
-0.4955409670312534	-0.09083302967792026
-0.4954799318750034	-0.1097159237475815
-0.4954188967187534	-0.1283139219908826
-0.4953578615625034	-0.1465738968800609
-0.4952968264062534	-0.16444369898363734
-0.4952357912500034	-0.18187229271019134
-0.4951747560937534	-0.19880978904581337
-0.4951137209375034	-0.2152077224673081
-0.4950526857812534	-0.23101917250953102
-0.4949916506250034	-0.2461987640749516
-0.4949306154687534	-0.260702984503551
-0.4948695803125034	-0.27449021798886497
-0.4948085451562534	-0.2875208114842278
-0.4947475100000034	-0.2997572955882967
-0.4946864748437534	-0.31116446623637956
-0.4946254396875034	-0.32170939722835734
-0.4945644045312534	-0.3313616566782126
-0.4945033693750034	-0.3400933464114796
-0.4944423342187534	-0.34787914121424696
-0.4943812990625034	-0.3546964368236542
-0.4943202639062534	-0.3605253673824409
-0.4942592287500034	-0.3653488793617643
-0.4941981935937534	-0.36915276554275867
-0.4941371584375034	-0.3719257498252444
-0.4940761232812534	-0.37365947258978177
-0.4940150881250034	-0.37434852937895247
-0.4939540529687534	-0.3739905199722943
-0.4938930178125034	-0.372586005325209
-0.4938319826562534	-0.37013854697118953
-0.4937709475000034	-0.3666546846422484
-0.4937099123437534	-0.36214391381916783
-0.4936488771875034	-0.3566186674186897
-0.4935878420312534	-0.35009428469300147
-0.4935268068750034	-0.3425889549390145
-0.4934657717187534	-0.3341236792218195
-0.4934047365625034	-0.3247222184506247
-0.4933437014062534	-0.31441098929095856
-0.4932826662500034	-0.3032190546890327
-0.4932216310937534	-0.29117796467063184
-0.4931605959375034	-0.2783217294487599
-0.4930995607812534	-0.2646867102843599
-0.4930385256250034	-0.2503114590750076
-0.4929774904687534	-0.2352367297087236
-0.4929164553125034	-0.2195051990038874
-0.4928554201562534	-0.20316152200365054
-0.4927943850000034	-0.18625207279076644
-0.4927333498437534	-0.1688248143710317
-0.4926723146875034	-0.15092933970843747
-0.4926112795312534	-0.13261642355377518
-0.4925502443750034	-0.11393816730463865
-0.4924892092187534	-0.09494772888166395
-0.4924281740625034	-0.07569908707869874
-0.4923671389062534	-0.05624705660575743
-0.4923061037500034	-0.03664702457357527
-0.4922450685937534	-0.016954809388614735
-0.4921840334375034	0.002773507745157153
-0.4921229982812534	0.02248168436330581
-0.4920619631250034	0.0421135716272208
-0.4920009279687534	0.06161320909585673
-0.4919398928125034	0.08092497678811097
-0.4918788576562534	0.09999382464590516
-0.4918178225000034	0.11876536869342838
-0.4917567873437534	0.13718605130840164
-0.4916957521875034	0.15520332778334991
-0.4916347170312534	0.17276581749637984
-0.4915736818750034	0.18982339167558607
-0.4915126467187534	0.20632738742942705
-0.4914516115625034	0.22223074118064334
-0.4913905764062534	0.23748805105750478
-0.4913295412500034	0.2520558192986901
-0.4912685060937534	0.26589249086321026
-0.4912074709375034	0.27895859660055927
-0.4911464357812534	0.29121691740222033
-0.4910854006250034	0.30263248962159894
-0.4910243654687534	0.313172815055754
-0.4909633303125034	0.322807894201278
-0.4909022951562534	0.33151030360165284
-0.4908412600000034	0.3392553321999167
-0.4907802248437534	0.3460210020999711
-0.4907191896875034	0.35178814428938665
-0.4906581545312534	0.3565404797546274
-0.4905971193750034	0.3602646330004903
-0.4905360842187534	0.3629501911037006
-0.4904750490625034	0.3645897416454833
-0.4904140139062534	0.36517886574442876
-0.4903529787500034	0.3647161868993719
-0.4902919435937534	0.3632033528671154
-0.4902309084375034	0.36064503953852073
-0.4901698732812534	0.35704894045063434
-0.4901088381250034	0.3524257399039317
-0.4900478029687534	0.3467890907618586
-0.4899867678125034	0.34015556765197025
-0.4899257326562534	0.3325446292507328
-0.4898646975000034	0.3239785548762341
-0.4898036623437534	0.31448238789310345
-0.4897426271875034	0.3040838610325826
-0.4896815920312534	0.2928133064036727
-0.4896205568750034	0.2807036112328851
-0.4895595217187534	0.2677900548995226
-0.4894984865625034	0.25411025724715464
-0.4894374514062534	0.23970410283166854
-0.4893764162500034	0.2246134935295733
-0.4893153810937534	0.20888239967452868
-0.4892543459375034	0.19255663979950535
-0.4891933107812534	0.1756836870270509
-0.4891322756250034	0.15831271746488618
-0.4890712404687534	0.14049428309018583
-0.4890102053125034	0.12228023308082867
-0.4889491701562534	0.10372365154828604
-0.4888881350000034	0.08487852514118438
-0.4888270998437534	0.06579974951006799
-0.4887660646875034	0.046542906453212206
-0.4887050295312534	0.02716405796137475
-0.4886439943750034	0.007719693732470349
-0.4885829592187534	-0.011733549843815062
-0.4885219240625034	-0.031138951830118097
-0.4884608889062534	-0.05043995735406245
-0.4883998537500034	-0.06958028313100731
-0.4883388185937534	-0.08850408344309614
-0.4882777834375034	-0.107156184283408
-0.4882167482812534	-0.1254821075754961
-0.4881557131250034	-0.1434283623320928
-0.4880946779687534	-0.1609425615185471
-0.4880336428125034	-0.17797348436016794
-0.4879726076562534	-0.19447139517910042
-0.4879115725000034	-0.21038803667459732
-0.4878505373437534	-0.225676796731716
-0.4877895021875034	-0.24029298175443098
-0.4877284670312534	-0.2541937308635212
-0.4876674318750034	-0.2673383117920408
-0.4876063967187534	-0.2796881598408769
-0.4875453615625034	-0.29120701185181264
-0.4874843264062534	-0.30186101705667284
-0.4874232912500034	-0.3116187999074445
-0.4873622560937534	-0.32045164991139446
-0.4873012209375034	-0.3283334496849098
-0.4872401857812534	-0.33524090746579943
-0.4871791506250034	-0.3411535431879283
-0.4871181154687534	-0.3460537427646712
-0.4870570803125034	-0.34992686150776553
-0.4869960451562534	-0.35276122451712993
-0.4869350100000034	-0.3545481885731795
-0.4868739748437534	-0.3552821383764036
-0.4868129396875034	-0.3549605483699772
-0.4867519045312534	-0.3535839484763014
-0.4866908693750034	-0.3511559460349666
-0.4866298342187534	-0.34768322274947755
-0.4865687990625034	-0.3431754955308234
-0.4865077639062534	-0.3376455052304618
-0.4864467287500034	-0.3311089865995926
-0.4863856935937534	-0.32358459603226575
-0.4863246584375034	-0.3150938994426342
-0.4862636232812534	-0.30566127880992366
-0.4862025881250034	-0.29531386488536915
-0.4861415529687534	-0.2840814943806851
-0.4860805178125034	-0.271996565359225
-0.4860194826562534	-0.2590940071805307
-0.4859584475000034	-0.24541113444060605
-0.4858974123437534	-0.23098756079741856
-0.4858363771875034	-0.21586507999995522
-0.4857753420312534	-0.2000875546522791
-0.4857143068750034	-0.18370076182570472
-0.4856532717187534	-0.16675229248279094
-0.4855922365625034	-0.1492914166779853
-0.4855312014062534	-0.13136888417802595
-0.4854701662500034	-0.11303687655434132
-0.4854091310937534	-0.09434874517424194
-0.4853480959375034	-0.07535894566848805
-0.4852870607812534	-0.0561228407393911
-0.4852260256250034	-0.03669652264983892
-0.4851649904687534	-0.0171367049924878
-0.4851039553125034	0.002499504013166784
-0.4850429201562534	0.022154727162886332
-0.4849818850000034	0.041771483531616055
-0.4849208498437534	0.06129239097556089
-0.4848598146875034	0.08066031180884017
-0.4847987795312534	0.09981847834293635
-0.4847377443750034	0.11871075101691449
-0.4846767092187534	0.1372817093140481
-0.4846156740625034	0.15547681009272732
-0.4845546389062534	0.1732425965774664
-0.4844936037500034	0.19052685598681599
-0.4844325685937534	0.2072786618089294
-0.4843715334375034	0.22344867623266018
-0.4843104982812534	0.23898923963008326
-0.4842494631250034	0.2538543961429753
-0.4841884279687534	0.2680002536758095
-0.4841273928125034	0.2813848833301673
-0.4840663576562534	0.2939686063709233
-0.4840053225000034	0.3057140464676
-0.4839442873437534	0.3165861901862656
-0.4838832521875034	0.3265526431005135
-0.4838222170312534	0.335583524059153
-0.4837611818750034	0.34365172337637206
-0.4837001467187534	0.35073290973977106
-0.4836391115625034	0.3568055740576691
-0.4835780764062534	0.3618511781852427
-0.4835170412500034	0.36585412918945964
-0.4834560060937534	0.36880186982474605
-0.4833949709375034	0.37068491540964676
-0.4833339357812534	0.37149686669879645
-0.4832729006250034	0.3712344378132264
-0.4832118654687534	0.36989747646993076
-0.4831508303125034	0.36748895354602396
-0.4830897951562534	0.3640149605642308
-0.4830287600000034	0.35948470314278724
-0.4829677248437534	0.35391045348419664
-0.4829066896875034	0.3473075495065856
-0.4828456545312534	0.3396943147486576
-0.4827846193750034	0.33109203711735735
-0.4827235842187534	0.32152489927916333
-0.4826625490625034	0.31101988837069117
-0.4826015139062534	0.29960677183239937
-0.4825404787500034	0.2873179402565274
-0.4824794435937534	0.2741883836326211
-0.4824184084375034	0.26025554294507636
-0.4823573732812534	0.24555923338606947
-0.4822963381250034	0.23014149870999528
-0.4822353029687534	0.2140465171733346
-0.4821742678125034	0.19732049061787515
-0.4821132326562534	0.1800114058147924
-0.4820521975000034	0.1621690879846782
-0.4819911623437534	0.14384484463327032
-0.4819301271875034	0.12509144801580707
-0.4818690920312534	0.10596299753570029
-0.4818080568750034	0.08651461952599165
-0.4817470217187534	0.0668024968182053
-0.4816859865625034	0.046883534871731
-0.4816249514062534	0.026815337814012186
-0.4815639162500034	0.006655917065314078
-0.4815028810937534	-0.013536390803913704
-0.4814418459375034	-0.033703090607406665
-0.4813808107812534	-0.053785824438781216
-0.4813197756250034	-0.0737263362496467
-0.4812587404687534	-0.09346683975510302
-0.4811977053125034	-0.11295005638434358
-0.4811366701562534	-0.1321194492605443
-0.4810756350000034	-0.15091936391068156
-0.4810145998437534	-0.16929517741723168
-0.4809535646875034	-0.18719351167070888
-0.4808925295312534	-0.2045623067290543
-0.4808314943750034	-0.22135106878010888
-0.4807704592187534	-0.23751094333336487
-0.4807094240625034	-0.25299487891284916
-0.4806483889062534	-0.2677577986065293
-0.4805873537500034	-0.28175668654626973
-0.4805263185937534	-0.2949507290257063
-0.4804652834375034	-0.3073014802828833
-0.4804042482812534	-0.3187728648991331
-0.4803432131250034	-0.329331426174674
-0.4802821779687534	-0.3389463340230335
-0.4802211428125034	-0.34758944634792743
-0.4801601076562534	-0.355235529664754
-0.4800990725000034	-0.36186217915778907
-0.4800380373437534	-0.3674499741014603
-0.4799770021875034	-0.37198253441205414
-0.4799159670312534	-0.3754465320583869
-0.4798549318750034	-0.3778317434999402
-0.4797938967187534	-0.3791311144865615
-0.4797328615625034	-0.37934074395492456
-0.4796718264062534	-0.3784598903577722
-0.4796107912500034	-0.3764910323461304
-0.4795497560937534	-0.3734397938868771
-0.4794887209375034	-0.36931496713747014
-0.4794276857812534	-0.36412849762697497
-0.4793666506250034	-0.3578954088481518
-0.4793056154687534	-0.350633804626138
-0.4792445803125034	-0.3423647952541644
-0.4791835451562534	-0.3331124284544749
-0.4791225100000034	-0.32290364310895536
-0.4790614748437534	-0.3117681881609887
-0.4790004396875034	-0.29973849977383493
-0.4789394045312534	-0.2868496636644423
-0.4788783693750034	-0.27313929738570836
-0.4788173342187534	-0.258647369511972
-0.4787562990625034	-0.24341622521441858
-0.4786952639062534	-0.22749033940419083
-0.4786342287500034	-0.21091619951191787
-0.4785731935937534	-0.19374228338576852
-0.4785121584375034	-0.17601877070730718
-0.4784511232812534	-0.15779745675232737
-0.4783900881250034	-0.139131669095128
-0.4783290529687534	-0.12007598600816911
-0.4782680178125034	-0.10068615158803512
-0.4782069826562534	-0.08101894349283852
-0.4781459475000034	-0.06113190498710203
-0.4780849123437534	-0.04108327163210639
-0.4780238771875034	-0.020931769092644548
-0.4779628420312534	-0.0007364006617072107
-0.4779018068750034	0.01944365979695108
-0.4778407717187534	0.03954926040423318
-0.4777797365625034	0.05952150429094778
-0.4777187014062534	0.07930182981503389
-0.4776576662500034	0.09883223360901014
-0.4775966310937534	0.11805546693858719
-0.4775355959375034	0.13691512976494227
-0.4774745607812534	0.15535590980052683
-0.4774135256250034	0.17332370212757897
-0.4773524904687534	0.19076578837292926
-0.4772914553125034	0.20763097552496465
-0.4772304201562534	0.22386976045078258
-0.4771693850000034	0.23943448959518407
-0.4771083498437534	0.25427945175312916
-0.4770473146875034	0.2683610741036668
-0.4769862795312534	0.2816380111069646
-0.4769252443750034	0.2940712635168572
-0.4768642092187534	0.3056243307397505
-0.4768031740625034	0.3162632887576886
-0.4767421389062534	0.32595689658024857
-0.4766811037500034	0.3346766866153199
-0.4766200685937534	0.34239706809926074
-0.4765590334375034	0.34909538716760996
-0.4764979982812534	0.35475198361668353
-0.4764369631250034	0.3593502879686121
-0.4763759279687534	0.3628768303975026
-0.4763148928125034	0.36532130008457697
-0.4762538576562534	0.3666765923229575
-0.4761928225000034	0.36693879346391456
-0.4761317873437534	0.36610722928412787
-0.4760707521875034	0.36418445197401567
-0.4760097170312534	0.3611762268413593
-0.4759486818750034	0.35709154085648154
-0.4758876467187534	0.35194255068990304
-0.4758266115625034	0.34574455970628654
-0.4757655764062534	0.33851599097401047
-0.4757045412500034	0.3302782897654509
-0.4756435060937534	0.32105591097654235
-0.4755824709375034	0.31087623586966356
-0.4755214357812534	0.2997694353526685
-0.4754604006250034	0.28776849472302957
-0.4753993654687534	0.27490901135615975
-0.4753383303125034	0.2612291232069834
-0.4752772951562534	0.24676946465742886
-0.4752162600000034	0.2315729081944201
-0.4751552248437534	0.21568458611331032
-0.4750941896875034	0.19915168033519026
-0.4750331545312534	0.18202323039145532
-0.4749721193750034	0.16435016394169008
-0.4749110842187534	0.146184963779522
-0.4748500490625034	0.12758156485032554
-0.4747890139062534	0.10859532103261071
-0.4747279787500034	0.0892826317371735
-0.4746669435937534	0.06970092605157559
-0.4746059084375034	0.049908471602558145
-0.4745448732812534	0.02996414787328758
-0.4744838381250034	0.009927310635956196
-0.4744228029687534	-0.01014239262656583
-0.4743617678125034	-0.030185130878579
-0.4743007326562534	-0.05014126264420427
-0.4742396975000034	-0.06995125230067993
-0.4741786623437534	-0.08955600557704946
-0.4741176271875034	-0.10889712130494665
-0.4740565920312534	-0.12791676416043388
-0.4739955568750034	-0.14655818548968352
-0.4739345217187534	-0.1647657138775963
-0.4738734865625034	-0.18248483505638652
-0.4738124514062534	-0.19966259547603873
-0.4737514162500034	-0.2162475674975541
-0.4736903810937534	-0.2321900203834743
-0.4736293459375034	-0.24744218986612082
-0.4735683107812534	-0.2619582928292324
-0.4735072756250034	-0.2756946840871834
-0.4734462404687534	-0.28861008667911764
-0.4733852053125034	-0.3006655880968041
-0.4733241701562534	-0.31182479975591965
-0.4732631350000034	-0.32205404231590545
-0.4732020998437534	-0.33132231497240155
-0.4731410646875034	-0.3396014752725727
-0.4730800295312534	-0.34686634085167384
-0.4730189943750034	-0.3530946735017319
-0.4729579592187534	-0.358267331573912
-0.4728969240625034	-0.3623683110240562
-0.4728358889062534	-0.36538475262981435
-0.4727748537500034	-0.36730703324592406
-0.4727138185937534	-0.3681287750017906
-0.4726527834375034	-0.3678468521706313
-0.4725917482812534	-0.3664614288032668
-0.4725307131250034	-0.3639759445035229
-0.4724696779687534	-0.3603971052373561
-0.4724086428125034	-0.3557348725596591
-0.4723476076562534	-0.3500024322288942
-0.4722865725000034	-0.343216154861011
-0.4722255373437534	-0.3353955548307228
-0.4721645021875034	-0.3265632239499191
-0.4721034670312534	-0.3167447867140149
-0.4720424318750034	-0.30596879120409043
-0.4719813967187534	-0.2942666652308138
-0.4719203615625034	-0.281672605221764
-0.4718593264062534	-0.2682234552348278
-0.4717982912500034	-0.25395866592363725
-0.4717372560937534	-0.23892007598951495
-0.4716762209375034	-0.22315190241238725
-0.4716151857812534	-0.20670052488297047
-0.4715541506250034	-0.18961438100611905
-0.4714931154687534	-0.17194385481740862
-0.4714320803125034	-0.15374103358020622
-0.4713710451562534	-0.13505968974685914
-0.4713100100000034	-0.11595500239386236
-0.4712489748437534	-0.09648345089047268
-0.4711879396875034	-0.07670265079374532
-0.4711269045312534	-0.05667115854804849
-0.4710658693750034	-0.0364483168543388
-0.4710048342187534	-0.01609406726342143
-0.4709437990625034	0.00433121557608604
-0.4708827639062534	0.02476691174277857
-0.4708217287500034	0.04515234023684419
-0.4707606935937534	0.06542692620809684
-0.4706996584375034	0.08553037198379697
-0.4706386232812534	0.10540290128977117
-0.4705775881250034	0.12498532895196715
-0.4705165529687534	0.14421932556934378
-0.4704555178125034	0.16304758134373634
-0.4703944826562534	0.1814138961507992
-0.4703334475000034	0.1992634837553744
-0.4702724123437534	0.21654301205158216
-0.4702113771875034	0.23320080022929057
-0.4701503420312534	0.24918705153071413
-0.4700893068750034	0.2644538537523869
-0.4700282717187534	0.27895544472841677
-0.4699672365625034	0.29264832010406666
-0.4699062014062534	0.3054913194910685
-0.4698451662500034	0.3174458129885273
-0.4697841310937534	0.32847575480883073
-0.4697230959375034	0.338547872938584
