Time	Frequency
-0.5000424383437547	0.25520786433343784
-0.4999814031875047	0.23093831780607962
-0.4999203680312547	0.2055845799637043
-0.4998593328750047	0.17926347080411922
-0.4997982977187547	0.15209643683254065
-0.4997372625625047	0.1242088892438562
-0.4996762274062547	0.09572947849982065
-0.4996151922500047	0.06678978752550732
-0.4995541570937547	0.037523546928931985
-0.4994931219375047	0.008065960778994685
-0.4994320867812547	-0.0214466681662998
-0.4993710516250047	-0.05087780699785211
-0.4993100164687547	-0.08009128019636881
-0.4992489813125047	-0.10895171634068194
-0.4991879461562547	-0.13732539985337147
-0.4991269110000047	-0.16508078475166207
-0.4990658758437547	-0.192089092235033
-0.4990048406875047	-0.2182249027056156
-0.4989438055312547	-0.2433667806715561
-0.4988827703750047	-0.2673978682201178
-0.4988217352187547	-0.29020623403133805
-0.4987607000625047	-0.3116856291610913
-0.4986996649062547	-0.33173589143426274
-0.4986386297500047	-0.3502633017243802
-0.4985775945937547	-0.36718120306347013
-0.4985165594375047	-0.38241029233375734
-0.4984555242812547	-0.39587896509702375
-0.4983944891250047	-0.40752377334964673
-0.4983334539687547	-0.4172896082688042
-0.4982724188125047	-0.4251299703427923
-0.4982113836562547	-0.43100727904443087
-0.4981503485000047	-0.43489294313365073
-0.4980893133437547	-0.4367675462171906
-0.4980282781875047	-0.4366209570321443
-0.4979672430312547	-0.43445235423313067
-0.4979062078750047	-0.43027023141562837
-0.4978451727187547	-0.4240923940389534
-0.4977841375625047	-0.4159458538084922
-0.4977231024062547	-0.4058667244815749
-0.4976620672500047	-0.393900056421955
-0.4976010320937547	-0.3800996228839881
-0.4975399969375047	-0.36452771872003936
-0.4974789617812547	-0.34725480328800107
-0.4974179266250047	-0.3283592652155509
-0.4973568914687547	-0.30792700048568733
-0.4972958563125047	-0.2860510682427406
-0.4972348211562547	-0.2628312043654186
-0.4971737860000047	-0.23837343876495404
-0.4971127508437547	-0.21278959716755783
-0.4970517156875047	-0.18619665901208202
-0.4969906805312547	-0.1587164891967577
-0.4969296453750047	-0.1304749790693243
-0.4968686102187547	-0.1016016706772792
-0.4968075750625047	-0.07222913250190278
-0.4967465399062547	-0.0424921868187156
-0.4966855047500047	-0.012527592638584302
-0.4966244695937547	0.017526871884238897
-0.4965634344375047	0.04753296452278757
-0.4965023992812547	0.07735244801893504
-0.4964413641250047	0.10684795671484508
-0.4963803289687547	0.13588358010719917
-0.4963192938125047	0.164325313899001
-0.4962582586562547	0.19204193964704355
-0.4961972235000047	0.21890543761262526
-0.4961361883437547	0.2447916268748529
-0.4960751531875047	0.2695808827654559
-0.4960141180312547	0.2931584067009299
-0.4959530828750047	0.3154150291099669
-0.4958920477187547	0.33624760350900584
-0.4958310125625047	0.35555940918581574
-0.4957699774062547	0.3732607862416912
-0.4957089422500047	0.38926941222751554
-0.4956479070937547	0.4035106742336839
-0.4955868719375047	0.41591813441118325
-0.4955258367812547	0.4264337524190809
-0.4954648016250047	0.4350081683479689
-0.4954037664687547	0.44160096141678823
-0.4953427313125047	0.44618080565483154
-0.4952816961562547	0.4487256655512538
-0.4952206610000047	0.44922286107076537
-0.4951596258437547	0.4476691529836698
-0.4950985906875047	0.4440707454371807
-0.4950375555312547	0.43844328742247224
-0.4949765203750047	0.43081180374043576
-0.4949154852187547	0.42121051601216497
-0.4948544500625047	0.40968281719789934
-0.4947934149062547	0.3962809679684622
-0.4947323797500047	0.3810658569502054
-0.4946713445937547	0.36410686585198226
-0.4946103094375047	0.3454813271560837
-0.4945492742812547	0.32527436975522755
-0.4944882391250047	0.30357846258176086
-0.4944272039687547	0.28049288609905715
-0.4943661688125047	0.25612348493487813
-0.4943051336562547	0.2305820018615605
-0.4942440985000047	0.20398563744893933
-0.4941830633437547	0.17645651839641183
-0.4941220281875047	0.1481210781073193
-0.4940609930312547	0.11910960006303674
-0.4939999578750047	0.0895554358766161
-0.4939389227187547	0.05959451493170594
-0.4938778875625047	0.029364780375974266
-0.4938168524062547	-0.0009947275440678794
-0.4937558172500047	-0.03134416152700254
-0.4936947820937547	-0.06154371508769517
-0.4936337469375047	-0.09145434128296887
-0.4935727117812547	-0.12093813568703007
-0.4935116766250047	-0.14985921660734106
-0.4934506414687547	-0.17808428983142563
-0.4933896063125047	-0.20548316524051488
-0.4933285711562547	-0.23192948053675752
-0.4932675360000047	-0.2573013341398338
-0.4932065008437547	-0.2814815792486389
-0.4931454656875047	-0.30435867755852947
-0.4930844305312547	-0.32582716668204265
-0.4930233953750047	-0.3457878822457437
-0.4929623602187547	-0.3641487715736093
-0.4929013250625047	-0.3808251316691727
-0.4928402899062547	-0.3957400167114419
-0.4927792547500047	-0.40882466891162456
-0.4927182195937547	-0.42001871416037717
-0.4926571844375047	-0.4292706305779203
-0.4925961492812547	-0.4365378274247797
-0.4925351141250047	-0.4417868721768502
-0.4924740789687547	-0.44499377139089175
-0.4924130438125047	-0.44614392089351373
-0.4923520086562547	-0.4452322767200721
-0.4922909735000047	-0.4422633683498658
-0.4922299383437547	-0.43725124967682133
-0.4921689031875047	-0.43021948150745687
-0.4921078680312547	-0.4212009762441244
-0.4920468328750047	-0.41023788791166527
-0.4919857977187547	-0.3973814188017318
-0.4919247625625047	-0.38269154880013895
-0.4918637274062547	-0.36623678681417304
-0.4918026922500047	-0.3480938663184156
-0.4917416570937547	-0.3283473943142272
-0.4916806219375047	-0.3070893572949187
-0.4916195867812547	-0.28441890261135805
-0.4915585516250047	-0.26044171041179737
-0.4914975164687547	-0.23526947139026633
-0.4914364813125047	-0.2090196361812066
-0.4913754461562547	-0.1818145024136358
-0.4913144110000047	-0.1537809158648109
-0.4912533758437547	-0.12504967288457305
-0.4911923406875047	-0.09575469136347416
-0.4911313055312547	-0.06603257615651738
-0.4910702703750047	-0.0360220794055948
-0.4910092352187547	-0.005863173886289139
-0.4909482000625047	0.024303483772160912
-0.4908871649062547	0.054336958447638056
-0.4908261297500047	0.08409716735642547
-0.4907650945937547	0.11344511869272145
-0.4907040594375047	0.14224371450376924
-0.4906430242812547	0.1703585421494646
-0.4905819891250047	0.19765811688087903
-0.4905209539687547	0.22401494221658372
-0.4904599188125047	0.24930582473237337
-0.4903988836562547	0.27341240105610537
-0.4903378485000047	0.2962220167396953
-0.4902768133437547	0.3176279541891142
-0.4902157781875047	0.33752990321604043
-0.4901547430312547	0.3558347696256104
-0.4900937078750047	0.37245682601041813
-0.4900326727187547	0.38731802081724725
-0.4899716375625047	0.40034877844718963
-0.4899106024062547	0.41148788604643677
-0.4898495672500047	0.420682971521946
-0.4897885320937547	0.4278908246612453
-0.4897274969375047	0.4330773912397949
-0.4896664617812547	0.43621819487582614
-0.4896054266250047	0.43729820572485256
-0.4895443914687547	0.43631208261316323
-0.4894833563125047	0.4332641704052228
-0.4894223211562547	0.4281684004545938
-0.4893612860000047	0.42104835888060427
-0.4893002508437547	0.4119370615542345
-0.4892392156875047	0.4008768903601126
-0.4891781805312547	0.3879193643100375
-0.4891171453750047	0.37312486708904147
-0.4890561102187547	0.3565624699684716
-0.4889950750625047	0.3383094872730604
-0.4889340399062547	0.3184512149892434
-0.4888730047500047	0.2970805268332015
-0.4888119695937547	0.2742973140033865
-0.4887509344375047	0.2502082907094764
-0.4886898992812547	0.22492618226911784
-0.4886288641250047	0.1985693889791647
-0.4885678289687547	0.17126154600070317
-0.4885067938125047	0.14313050581458847
-0.4884457586562547	0.11430832747991747
-0.4883847235000047	0.08493024578173403
-0.4883236883437547	0.055134054770675955
-0.4882626531875047	0.025059855174653433
-0.4882016180312547	-0.005151210358938359
-0.4881405828750047	-0.035357047238077845
-0.4880795477187547	-0.06541556190661822
-0.4880185125625047	-0.09518545172699454
-0.4879574774062547	-0.1245264197461929
-0.4878964422500047	-0.15330033183401612
-0.4878354070937547	-0.18137151050293482
-0.4877743719375047	-0.2086075787020039
-0.4877133367812547	-0.2348800225617928
-0.4876523016250047	-0.2600645812547214
-0.4875912664687547	-0.28404233817193714
-0.4875302313125047	-0.30669977330820986
-0.4874691961562547	-0.3279294284497454
-0.4874081610000047	-0.3476306912484346
-0.4873471258437547	-0.36570994322019124
-0.4872860906875047	-0.3820810926357677
-0.4872250555312547	-0.39666603419485097
-0.4871640203750047	-0.40939505439783874
-0.4871029852187547	-0.42020702676759125
-0.4870419500625047	-0.429049769968554
-0.4869809149062547	-0.4358804053863853
-0.4869198797500047	-0.44066536161344916
-0.4868588445937547	-0.4433806741061926
-0.4867978094375047	-0.4440120975897573
-0.4867367742812547	-0.44255511183753643
-0.4866757391250047	-0.4390150113702836
-0.4866147039687547	-0.4334068439716249
-0.4865536688125047	-0.42575538255676254
-0.4864926336562547	-0.4160949882486704
-0.4864315985000047	-0.40446945756905484
-0.4863705633437547	-0.39093183609928683
-0.4863095281875047	-0.37554417242867194
-0.4862484930312547	-0.358377214023446
-0.4861874578750047	-0.3395101064316565
-0.4861264227187547	-0.3190300127207607
-0.4860653875625047	-0.2970317137410934
-0.4860043524062547	-0.27361716604880426
-0.4859433172500047	-0.2488950021631946
-0.4858822820937547	-0.22298014749699402
-0.4858212469375047	-0.19599305998537325
-0.4857602117812547	-0.16805935205824282
-0.4856991766250047	-0.13930923311357724
-0.4856381414687547	-0.10987667346845849
-0.4855771063125047	-0.07989904284543684
-0.4855160711562547	-0.04951627673263249
-0.4854550360000047	-0.01887035605084317
-0.4853940008437547	0.011895455088777977
-0.4853329656875047	0.042637306167463425
-0.4852719305312547	0.073211185733938
-0.4852108953750047	0.1034739832203797
-0.4851498602187547	0.13328389980569705
-0.4850888250625047	0.16250106592320968
-0.4850277899062547	0.19098847895445342
-0.4849667547500047	0.2186123661550042
-0.4849057195937547	0.2452429435667449
-0.4848446844375047	0.2707550616542365
-0.4847836492812547	0.2950286294675832
-0.4847226141250047	0.31794944075831905
-0.4846615789687547	0.3394094467317349
-0.4846005438125047	0.35930739336890966
-0.4845395086562547	0.3775494181363983
-0.4844784735000047	0.39404920596203863
-0.4844174383437547	0.40872864427217903
-0.4843564031875047	0.42151811535475503
-0.4842953680312547	0.4323568175182336
-0.4842343328750047	0.44119302883480954
-0.4841732977187547	0.4479844144309011
-0.4841122625625047	0.4526982422471957
-0.4840512274062547	0.45531141691723137
-0.4839901922500047	0.4558107430921328
-0.4839291570937547	0.4541929219915091
-0.4838681219375047	0.450464560740278
-0.4838070867812547	0.4446421785991148
-0.4837460516250047	0.4367521075637696
-0.4836850164687547	0.4268304184613353
-0.4836239813125047	0.41492268598155474
-0.4835629461562547	0.4010838364385376
-0.4835019110000047	0.3853778973482041
-0.4834408758437547	0.36787764045964977
-0.4833798406875047	0.3486643113833232
-0.4833188055312547	0.327827225571014
-0.4832577703750047	0.3054633392639179
-0.4831967352187547	0.28167681587353616
-0.4831357000625047	0.25657854587094664
-0.4830746649062547	0.23028558554745415
-0.4830136297500047	0.20292068224906595
-0.4829525945937547	0.1746116358522254
-0.4828915594375047	0.14549069532331
-0.4828305242812547	0.11569405678428361
-0.4827694891250047	0.08536105694863493
-0.4827084539687547	0.05463356479994937
-0.4826474188125047	0.023655471883389626
-0.4825863836562547	-0.007428201366501997
-0.4825253485000047	-0.038471903348404876
-0.4824643133437547	-0.06933014775493038
-0.4824032781875047	-0.09985833248762
-0.4823422430312547	-0.12991337556882207
-0.4822812078750047	-0.15935433662845144
-0.4822201727187547	-0.1880431420620704
-0.4821591375625047	-0.21584524648128225
-0.4820981024062547	-0.2426301428677938
-0.4820370672500047	-0.2682722094202919
-0.4819760320937547	-0.29265109058898964
-0.4819149969375047	-0.3156522917556425
-0.4818539617812547	-0.3371678939796731
-0.4817929266250047	-0.35709686700195464
-0.4817318914687547	-0.3753456224615773
-0.4816708563125047	-0.39182847914789354
-0.4816098211562547	-0.4064680819604858
-0.4815487860000047	-0.4191956626913445
-0.4814877508437547	-0.4299514980681123
-0.4814267156875047	-0.43868516121629625
-0.4813656805312547	-0.44535566732590676
-0.4813046453750047	-0.44993179975642245
-0.4812436102187547	-0.4523922155261647
-0.4811825750625047	-0.4527255006082935
-0.4811215399062547	-0.45093028934466556
-0.4810605047500047	-0.4470152674012381
-0.4809994695937547	-0.4409990881583792
-0.4809384344375047	-0.43291035103745895
-0.4808773992812547	-0.4227874234607293
-0.4808163641250047	-0.41067828420785485
-0.4807553289687547	-0.39664029993024436
-0.4806942938125047	-0.3807399380546144
-0.4806332586562547	-0.36305251491168394
-0.4805722235000047	-0.34366174205607736
-0.4805111883437547	-0.3226594238805961
-0.4804501531875047	-0.30014502585572805
-0.4803891180312547	-0.2762251003410617
-0.4803280828750047	-0.2510129406511591
-0.4802670477187547	-0.22462792879202864
-0.4802060125625047	-0.19719500880495194
-0.4801449774062547	-0.16884413183491032
-0.4800839422500047	-0.1397096074169561
-0.4800229070937547	-0.1099294599481662
-0.4799618719375047	-0.07964476922492378
-0.4799008367812547	-0.048999163137509884
-0.4798398016250047	-0.018137831091001352
-0.4797787664687547	0.012792923843564247
-0.4797177313125047	0.04364633785149455
-0.4796566961562547	0.07427615808975235
-0.4795956610000047	0.10453703367831153
-0.4795346258437547	0.134285357223577
-0.4794735906875047	0.1633800010421833
-0.4794125555312547	0.19168277094977182
-0.4793515203750047	0.2190592540693628
-0.4792904852187547	0.24537952277934375
-0.4792294500625047	0.27051840828650064
-0.4791684149062547	0.29435640365822835
-0.4791073797500047	0.31678028860611757
-0.4790463445937547	0.337683319486231
-0.4789853094375047	0.35696600688113883
-0.4789242742812547	0.37453659878656836
-0.4788632391250047	0.3903113746725565
-0.4788022039687547	0.40421512277842253
-0.4787411688125047	0.4161815202929776
-0.4786801336562547	0.42615342801506395
-0.4786190985000047	0.43408313738454923
-0.4785580633437547	0.43993263502035734
-0.4784970281875047	0.4436738186874198
-0.4784359930312547	0.44528854246141303
-0.4783749578750047	0.4447687781637859
-0.4783139227187547	0.4421166673297612
-0.4782528875625047	0.43734445404577554
-0.4781918524062547	0.430474481375125
-0.4781308172500047	0.42153907277739067
-0.4780697820937547	0.4105803967577305
-0.4780087469375047	0.3976502238700999
-0.4779477117812547	0.3828097634226666
-0.4778866766250047	0.36612933058042385
-0.4778256414687547	0.3476879405709961
-0.4777646063125047	0.3275731708636171
-0.4777035711562547	0.3058804620942596
-0.4776425360000047	0.28271278674281514
-0.4775815008437547	0.2581803655295899
-0.4775204656875047	0.23239973924805157
-0.4774594305312547	0.20549352593682269
-0.4773983953750047	0.17758981655116013
-0.4773373602187547	0.1488214169916745
-0.4772763250625047	0.11932531769860719
-0.4772152899062547	0.0892420741745402
-0.4771542547500047	0.058715122333900714
-0.4770932195937547	0.027889948252642464
-0.4770321844375047	-0.003086318840495809
-0.4769711492812547	-0.034065838314687194
-0.4769101141250047	-0.06490071185307292
-0.4768490789687547	-0.09544356802412275
-0.4767880438125047	-0.12554847771996203
-0.4767270086562547	-0.15507138157117892
-0.4766659735000047	-0.18387104457161974
-0.4766049383437547	-0.21180956669149753
-0.4765439031875047	-0.23875300723938675
-0.4764828680312547	-0.26457225731707207
-0.4764218328750047	-0.2891433139276975
-0.4763607977187547	-0.3123481755541031
-0.4762997625625047	-0.3340752923899519
-0.4762387274062547	-0.35421997872579825
-0.4761776922500047	-0.3726851772349494
-0.4761166570937547	-0.389381699854072
-0.4760556219375047	-0.40422873119866254
-0.4759945867812547	-0.4171542517847849
-0.4759335516250047	-0.4280953683709892
-0.4758725164687547	-0.43699859272981667
-0.4758114813125047	-0.44382006873229535
-0.4757504461562547	-0.44852593347772296
-0.4756894110000047	-0.4510923297910571
-0.4756283758437547	-0.4515055471149504
-0.4755673406875047	-0.4497622087946824
-0.4755063055312547	-0.44586916002521754
-0.4754452703750047	-0.4398434867601211
-0.4753842352187547	-0.4317124939147759
-0.4753232000625047	-0.42151348634851915
-0.4752621649062547	-0.4092936638440096
-0.4752011297500047	-0.3951099168005437
-0.4751400945937547	-0.3790284494621808
-0.4750790594375047	-0.3611246219742085
-0.4750180242812547	-0.3414825166815259
-0.4749569891250047	-0.3201944833427464
-0.4748959539687547	-0.2973608282929497
-0.4748349188125047	-0.27308930683350696
-0.4747738836562547	-0.24749451389451518
-0.4747128485000047	-0.22069741120418868
-0.4746518133437547	-0.19282494720715515
-0.4745907781875047	-0.16400898936585434
-0.4745297430312547	-0.13438612608555803
-0.4744687078750047	-0.10409699164685525
-0.4744076727187547	-0.07328517971843096
-0.4743466375625047	-0.04209714815321948
-0.4742856024062547	-0.010681049948495246
-0.4742245672500047	0.020813713746011996
-0.4741635320937547	0.05223725269759076
-0.4741024969375047	0.08344007562472912
-0.4740414617812547	0.11427342081060735
-0.4739804266250047	0.14459043317865652
-0.4739193914687547	0.17424652576612165
-0.4738583563125047	0.20310009450329247
-0.4737973211562547	0.2310135047998219
-0.4737362860000047	0.2578533549312258
-0.4736752508437547	0.2834912525041039
-0.4736142156875047	0.3078046426192626
-0.4735531805312547	0.3306770631613615
-0.4734921453750047	0.3519988741461641
-0.4734311102187547	0.3716678688568524
-0.4733700750625047	0.3895895374648573
-0.4733090399062547	0.40567769245857355
-0.4732480047500047	0.4198549002643058
-0.4731869695937547	0.4320527262768316
-0.4731259344375047	0.44221212358989404
-0.4730648992812547	0.45028380891932335
-0.4730038641250047	0.45622837074611894
-0.4729428289687547	0.4600165144650904
-0.4728817938125047	0.4616292451557703
-0.4728207586562547	0.4610579063786583
-0.4727597235000047	0.45830426688306025
-0.4726986883437547	0.4533804841141271
-0.4726376531875047	0.446309090397362
-0.4725766180312547	0.43712285723279115
-0.4725155828750047	0.42586465715308197
-0.4724545477187547	0.41258727318758526
-0.4723935125625047	0.39735313498125124
-0.4723324774062547	0.380234047956041
-0.4722714422500047	0.36131080450202163
-0.4722104070937547	0.3406729098449443
-0.4721493719375047	0.3184180049473551
-0.4720883367812547	0.29465152827449964
-0.4720273016250047	0.26948621696504027
-0.4719662664687547	0.24304142230474154
-0.4719052313125047	0.2154427811966909
-0.4718441961562547	0.18682137219759692
-0.4717831610000047	0.15731326868542259
-0.4717221258437547	0.12705884705297193
-0.4716610906875047	0.09620202477180531
-0.4716000555312547	0.06488973416216479
-0.4715390203750047	0.03327107415314647
-0.4714779852187547	0.0014966990407837423
-0.4714169500625047	-0.030281992462413043
-0.4713559149062547	-0.06191344232191067
-0.4712948797500047	-0.09324680050789796
-0.4712338445937547	-0.12413265141711191
-0.4711728094375047	-0.15442352293989609
-0.4711117742812547	-0.18397485028496524
-0.4710507391250047	-0.21264554442700548
-0.4709897039687547	-0.24029865389120542
-0.4709286688125047	-0.2668020597829943
-0.4708676336562547	-0.292029117300527
-0.4708065985000047	-0.31585922749278494
-0.4707455633437547	-0.33817848046289356
-0.4706845281875047	-0.3588801335969072
-0.4706234930312547	-0.37786509982450994
-0.4705624578750047	-0.395042623956319
-0.4705014227187547	-0.41033045778814314
-0.4704403875625047	-0.4236553946534476
-0.4703793524062547	-0.4349536753552069
-0.4703183172500047	-0.44417117474595436
-0.4702572820937547	-0.45126372322871283
-0.4701962469375047	-0.45619733973918636
-0.4701352117812547	-0.4589483885438249
-0.4700741766250047	-0.4595036667785929
-0.4700131414687547	-0.45786051128853505
-0.4699521063125047	-0.45402678856474515
-0.4698910711562547	-0.44802088883744334
-0.4698300360000047	-0.43987161040438333
-0.4697690008437547	-0.42961805099235567
-0.4697079656875047	-0.41730941354753837
