Time	Frequency
-0.5000541212812522	-0.39251950348179876
-0.49999308612500215	-0.3868019673414487
-0.49993205096875215	-0.37958091341733957
-0.49987101581250215	-0.3708827435264879
-0.49980998065625215	-0.36073956066893803
-0.49974894550000215	-0.34918897451578623
-0.49968791034375215	-0.33627402946594565
-0.49962687518750215	-0.3220430213588665
-0.49956584003125215	-0.3065492704417695
-0.49950480487500215	-0.2898510101642913
-0.49944376971875215	-0.2720110886962959
-0.49938273456250215	-0.2530967639633975
-0.49932169940625215	-0.233179464749223
-0.49926066425000215	-0.21233447780444872
-0.49919962909375215	-0.19064071187635892
-0.49913859393750215	-0.16818035806201476
-0.49907755878125215	-0.14503858577172266
-0.49901652362500215	-0.1213032759006218
-0.49895548846875215	-0.09706458144696095
-0.49889445331250215	-0.07241466839357799
-0.49883341815625215	-0.04744732999455619
-0.49877238300000215	-0.022257660959605692
-0.49871134784375215	0.003058331879844476
-0.49865031268750215	0.028404160984613024
-0.49858927753125215	0.05368303859710567
-0.49852824237500215	0.0787984391223666
-0.49846720721875215	0.10365441510768252
-0.49840617206250215	0.12815586159196649
-0.49834513690625215	0.15220901340739096
-0.49828410175000215	0.1757217828423405
-0.49822306659375215	0.198603990800704
-0.49816203143750215	0.22076786925842717
-0.49810099628125215	0.24212835635890706
-0.49803996112500215	0.2626032870785365
-0.49797892596875215	0.2821139264993021
-0.49791789081250215	0.30058515669304836
-0.49785685565625215	0.3179457030593172
-0.49779582050000215	0.3341285269246221
-0.49773478534375215	0.3490710848053471
-0.49767375018750215	0.36271543361269315
-0.49761271503125215	0.3750085799412325
-0.49755167987500215	0.3859027083722946
-0.49749064471875215	0.3953552111252914
-0.49742960956250215	0.4033290145135634
-0.49736857440625215	0.4097926604213526
-0.49730753925000215	0.4147203934792111
-0.49724650409375215	0.41809233918252175
-0.49718546893750215	0.41989452843798863
-0.49712443378125215	0.42011895849168146
-0.49706339862500215	0.4187636597860142
-0.49700236346875215	0.415832675039493
-0.49694132831250215	0.41133605085311004
-0.49688029315625215	0.4052898247715643
-0.49681925800000215	0.39771593959713675
-0.49675822284375215	0.38864218177518733
-0.49669718768750215	0.37810206951580216
-0.49663615253125215	0.3661347265940211
-0.49657511737500215	0.3527847479945324
-0.49651408221875215	0.33810202229231007
-0.49645304706250215	0.3221415211591801
-0.49639201190625215	0.3049631645672742
-0.49633097675000215	0.2866315141081834
-0.49626994159375215	0.26721551961460455
-0.49620890643750215	0.24678840189348614
-0.49614787128125215	0.22542718926832664
-0.49608683612500215	0.20321249535913902
-0.49602580096875215	0.1802282901691823
-0.49596476581250215	0.15656149897815533
-0.49590373065625215	0.13230162145834284
-0.49584269550000215	0.10754050676364255
-0.49578166034375215	0.08237200966709032
-0.49572062518750215	0.05689143149318085
-0.49565959003125215	0.031195411493984918
-0.49559855487500215	0.005381454089075775
-0.49553751971875215	-0.020452555937176684
-0.49547648456250215	-0.046208528736794464
-0.49541544940625215	-0.07178865953585704
-0.49535441425000215	-0.09709583221516355
-0.49529337909375215	-0.12203387921858647
-0.49523234393750215	-0.14650805627219834
-0.49517130878125215	-0.17042534880297144
-0.49511027362500215	-0.19369483821287395
-0.49504923846875215	-0.21622808783110894
-0.49498820331250215	-0.23793939860056787
-0.49492716815625215	-0.2587462519432797
-0.49486613300000215	-0.278569513845436
-0.49480509784375215	-0.2973338280479066
-0.49474406268750215	-0.31496786562665724
-0.49468302753125215	-0.3314045728334197
-0.49462199237500215	-0.34658152768900785
-0.49456095721875215	-0.3604410471924033
-0.49449992206250215	-0.37293050411451145
-0.49443888690625215	-0.38400254143280393
-0.49437785175000215	-0.39361516753773035
-0.49431681659375215	-0.40173197966644536
-0.49425578143750215	-0.4083223420772552
-0.49419474628125215	-0.4133614147352752
-0.49413371112500215	-0.41683030316112546
-0.49407267596875215	-0.4187161578021087
-0.49401164081250215	-0.41901216198249996
-0.49395060565625215	-0.4177176075728104
-0.49388957050000215	-0.4148378872310759
-0.49382853534375215	-0.41038446935652056
-0.49376750018750215	-0.4043748607274458
-0.49370646503125215	-0.396832545688034
-0.49364542987500215	-0.3877868934732919
-0.49358439471875215	-0.3772730351886412
-0.49352335956250215	-0.3653317676871375
-0.49346232440625215	-0.3520093529609434
-0.49340128925000215	-0.3373573561654326
-0.49334025409375215	-0.32143249768538973
-0.49327921893750215	-0.30429634555837803
-0.49321818378125215	-0.28601515020086943
-0.49315714862500215	-0.2666595881374322
-0.49309611346875215	-0.24630443715769557
-0.49303507831250215	-0.22502836850211064
-0.49297404315625215	-0.20291354660723257
-0.49291300800000215	-0.18004543657901806
-0.49285197284375215	-0.15651238086668462
-0.49279093768750215	-0.1324052355110693
-0.49272990253125215	-0.10781719876107905
-0.49266886737500215	-0.08284320303866578
-0.49260783221875215	-0.05757973351256012
-0.49254679706250215	-0.03212442808626113
-0.49248576190625215	-0.006575577735291541
-0.49242472675000215	0.018968052776066387
-0.49236369159375215	0.04440775452268598
-0.49230265643750215	0.06964526662045524
-0.49224162128125215	0.09458300483997094
-0.49218058612500215	0.11912456943835693
-0.49211955096875215	0.1431751357447064
-0.49205851581250215	0.16664168957821585
-0.49199748065625215	0.18943349507469043
-0.49193644550000215	0.21146242661429146
-0.49187541034375215	0.23264328884220004
-0.49181437518750215	0.2528941409703888
-0.49175334003125215	0.27213666208006887
-0.49169230487500215	0.29029638885281384
-0.49163126971875215	0.3073030485683325
-0.49157023456250215	0.32309085444967794
-0.49150919940625215	0.3375986567469058
-0.49144816425000215	0.350770334261415
-0.49138712909375215	0.36255487616121085
-0.49132609393750215	0.3729066520794806
-0.49126505878125215	0.3817855875104122
-0.49120402362500215	0.38915728472109645
-0.49114298846875215	0.39499321740433824
-0.49108195331250215	0.3992707537663846
-0.49102091815625215	0.4019733587414093
-0.49095988300000215	0.40309057335533055
-0.49089884784375215	0.40261806899492664
-0.49083781268750215	0.4005577250611831
-0.49077677753125215	0.3969175528017301
-0.49071574237500215	0.3917117044999225
-0.49065470721875215	0.38496041788949736
-0.49059367206250215	0.3766899318731974
-0.49053263690625215	0.3669323989939522
-0.49047160175000215	0.3557257464166222
-0.49041056659375215	0.34311354222025797
-0.49034953143750215	0.32914484455811055
-0.49028849628125215	0.3138739826693234
-0.49022746112500215	0.29736034950224066
-0.49016642596875215	0.2796682266106434
-0.49010539081250215	0.2608664888533102
-0.49004435565625215	0.24102829344225693
-0.48998332050000215	0.2202309379049003
-0.48992228534375215	0.19855544731535607
-0.48986125018750215	0.17608623256812136
-0.48980021503125215	0.15291095764964985
-0.48973917987500215	0.12911993387795065
-0.48967814471875215	0.10480595764664426
-0.48961710956250215	0.08006399008749439
-0.48955607440625215	0.05499049916171932
-0.48949503925000215	0.02968347880479374
-0.48943400409375215	0.0042418178538826375
-0.48937296893750215	-0.02123511825627369
-0.48931193378125215	-0.04664761442560279
-0.48925089862500215	-0.07189627097458337
-0.48918986346875215	-0.09688226029068311
-0.48912882831250215	-0.1215076723550829
-0.48906779315625215	-0.14567600894441407
-0.48900675800000215	-0.16929246890124838
-0.48894572284375215	-0.1922643241263815
-0.48888468768750215	-0.21450136399218392
-0.48882365253125215	-0.2359161248104539
-0.48876261737500215	-0.25642431065290655
-0.48870158221875215	-0.27594515300537603
-0.48864054706250215	-0.2944015780215439
-0.48857951190625215	-0.31172068413823084
-0.48851847675000215	-0.32783395069829074
-0.48845744159375215	-0.34267745249766246
-0.48839640643750215	-0.35619220890540215
-0.48833537128125215	-0.368324361937921
-0.48827433612500215	-0.37902539714456224
-0.48821330096875215	-0.38825232024027934
-0.48815226581250215	-0.3959678709352697
-0.48809123065625215	-0.4021406309610659
-0.48803019550000215	-0.4067451431552742
-0.48796916034375215	-0.4097620711705577
-0.48790812518750215	-0.411178213494538
-0.48784709003125215	-0.41098658259114673
-0.48778605487500215	-0.4091864633181714
-0.48772501971875215	-0.4057833691915095
-0.48766398456250215	-0.4007890597242436
-0.48760294940625215	-0.3942214980894236
-0.48754191425000215	-0.3861047594350629
-0.48748087909375215	-0.3764689753332873
-0.48741984393750215	-0.36535019128541124
-0.48735880878125215	-0.35279024824229704
-0.48729777362500215	-0.338836616042256
-0.48723673846875215	-0.3235422229283885
-0.48717570331250215	-0.30696522305906043
-0.48711466815625215	-0.28916881335552436
-0.48705363300000215	-0.2702210024559782
-0.48699259784375215	-0.2501942379405252
-0.48693156268750215	-0.2291652899302818
-0.48687052753125215	-0.20721486666157313
-0.48680949237500215	-0.18442724678469827
-0.48674845721875215	-0.1608901064598074
-0.48668742206250215	-0.13669404485851688
-0.48662638690625215	-0.1119322873756361
-0.48656535175000215	-0.08670034010329408
-0.48650431659375215	-0.06109557872553039
-0.48644328143750215	-0.03521692657590239
-0.48638224628125215	-0.00916437935519191
-0.48632121112500215	0.0169612478540465
-0.48626017596875215	0.043058823999161035
-0.48619914081250215	0.06902731154270575
-0.48613810565625215	0.09476597853140978
-0.48607707050000215	0.12017503511237003
-0.48601603534375215	0.14515588390925052
-0.48595500018750215	0.16961144367291578
-0.48589396503125215	0.19344669995278269
-0.48583292987500215	0.21656897471796194
-0.48577189471875215	0.23888822648429656
-0.48571085956250215	0.2603175376035589
-0.48564982440625215	0.28077340104427145
-0.48558878925000215	0.3001759581565763
-0.48552775409375215	0.31844947062677775
-0.48546671893750215	0.3355224864269597
-0.48540568378125215	0.3513281833616663
-0.48534464862500215	0.3658046267609243
-0.48528361346875215	0.3788949697195376
-0.48522257831250215	0.3905477664131313
-0.48516154315625215	0.4007170591088418
-0.48510050800000215	0.4093626603199065
-0.48503947284375215	0.41645026055856604
-0.48497843768750215	0.4219515712697243
-0.48491740253125215	0.42584446438911355
-0.48485636737500215	0.4281130016980036
-0.48479533221875215	0.42874758777659305
-0.48473429706250215	0.42774493508349537
-0.48467326190625215	0.4251081005292303
-0.48461222675000215	0.420846511952359
-0.48455119159375215	0.4149758888618911
-0.48449015643750215	0.407518204390156
-0.48442912128125215	0.39850160350641467
-0.48436808612500215	0.38796030792580194
-0.48430705096875215	0.3759344446291713
-0.48424601581250215	0.36246995446759556
-0.48418498065625215	0.3476183592512362
-0.48412394550000215	0.33143659653451335
-0.48406291034375215	0.3139868074101368
-0.48400187518750215	0.29533603198494796
-0.48394084003125215	0.2755560845896025
-0.48387980487500215	0.2547231032910454
-0.48381876971875215	0.23291739593907487
-0.48375773456250215	0.21022309775283887
-0.48369669940625215	0.1867277380552252
-0.48363566425000215	0.1625221035939612
-0.48357462909375215	0.13769970043019916
-0.48351359393750215	0.11235643138015998
-0.48345255878125215	0.08659036532099602
-0.48339152362500215	0.060501168468150936
-0.48333048846875215	0.03418973974640794
-0.48326945331250215	0.007758011560051436
-0.48320841815625215	-0.018691674877223053
-0.48314738300000215	-0.04505693414736939
-0.48308634784375215	-0.07123554358199709
-0.48302531268750215	-0.09712608434869363
-0.48296427753125215	-0.12262822776852354
-0.48290324237500215	-0.14764305785835857
-0.48284220721875215	-0.1720736388528008
-0.48278117206250215	-0.1958252239991008
-0.48272013690625215	-0.2188056713736743
-0.48265910175000215	-0.24092589627814542
-0.48259806659375215	-0.2621001039537687
-0.48253703143750215	-0.2822461581473687
-0.48247599628125215	-0.3012859204915662
-0.48241496112500215	-0.3191456096226741
-0.48235392596875215	-0.33575595749622333
-0.48229289081250215	-0.35105255644200656
-0.48223185565625215	-0.3649762224938908
-0.48217082050000215	-0.37747297487501374
-0.48210978534375215	-0.3884944745620531
-0.48204875018750215	-0.3979981574828503
-0.48198771503125215	-0.40594729941058605
-0.48192667987500215	-0.41231131652266745
-0.48186564471875215	-0.4170657703230282
-0.48180460956250215	-0.4201925378188579
-0.48174357440625215	-0.4216798343625586
-0.48168253925000215	-0.42152228108389334
-0.48162150409375215	-0.4197209626691246
-0.48156046893750215	-0.4162833551861511
-0.48149943378125215	-0.4112233534055316
-0.48143839862500215	-0.40456121430125735
-0.48137736346875215	-0.3963234482432484
-0.48131632831250215	-0.3865427451234277
-0.48125529315625215	-0.37525785245790033
-0.48119425800000215	-0.36251339891417317
-0.48113322284375215	-0.3483597363191612
-0.48107218768750215	-0.33285276881943915
-0.48101115253125215	-0.3160536878633214
-0.48095011737500215	-0.2980287508111858
-0.48088908221875215	-0.27884907587096824
-0.48082804706250215	-0.2585902760125515
-0.48076701190625215	-0.2373322089618553
-0.48070597675000215	-0.21515870189543043
-0.48064494159375215	-0.1921571578556092
-0.48058390643750215	-0.16841822701035508
-0.48052287128125215	-0.14403551836540607
-0.48046183612500215	-0.11910515502522642
-0.48040080096875215	-0.093725378519415
-0.48033976581250215	-0.06799631621706038
-0.48027873065625215	-0.04201940960318769
-0.48021769550000215	-0.015897063980672317
-0.48015666034375215	0.010267618008683496
-0.48009562518750215	0.036371451012917534
-0.48003459003125215	0.06231144330546837
-0.47997355487500215	0.08798520540873742
-0.47991251971875215	0.11329139441178075
-0.47985148456250215	0.1381300928686426
-0.47979044940625215	0.1624032304842601
-0.47972941425000215	0.18601487121452637
-0.47966837909375215	0.20887175508489467
-0.47960734393750215	0.2308835289769843
-0.47954630878125215	0.25196311978050656
-0.47948527362500215	0.2720271908721355
-0.47942423846875215	0.2909963048721053
-0.47936320331250215	0.3087953744276509
-0.47930216815625215	0.32535389121844166
-0.47924113300000215	0.34060620782283274
-0.47918009784375215	0.3544918501758917
-0.47911906268750215	0.36695567093264714
-0.47905802753125215	0.3779481503489402
-0.47899699237500215	0.3874255554251451
-0.47893595721875215	0.39535011198254383
-0.47887492206250215	0.4016901717829028
-0.47881388690625215	0.40642032739779343
-0.47875285175000215	0.4095215269785316
-0.47869181659375215	0.41098113656814866
-0.47863078143750215	0.4107930115831493
-0.47856974628125215	0.4089575054489754
-0.47850871112500215	0.40548148599855843
-0.47844767596875215	0.4003783066022402
-0.47838664081250215	0.39366774286741507
-0.47832560565625215	0.38537595468961716
-0.47826457050000215	0.37553533540958894
-0.47820353534375215	0.3641844284639598
-0.47814250018750215	0.35136777113955303
-0.47808146503125215	0.3371356839613602
-0.47802042987500215	0.32154414384939256
-0.47795939471875215	0.3046545025651126
-0.47789835956250215	0.2865332678712658
-0.47783732440625215	0.26725188847929365
-0.47777628925000215	0.24688637517874568
-0.47771525409375215	0.22551709968367453
-0.47765421893750215	0.20322845849684898
-0.47759318378125215	0.1801084689478999
-0.47753214862500215	0.15624854027057122
-0.47747111346875215	0.13174302577876504
-0.47741007831250215	0.10668886423336123
-0.47734904315625215	0.0811852700350332
-0.47728800800000215	0.05533323356673663
-0.47722697284375215	0.029235189107597294
-0.47716593768750215	0.002994642907552185
-0.47710490253125215	-0.0232843572789494
-0.47704386737500215	-0.049497471044914
-0.47698283221875215	-0.07554059021446836
-0.47692179706250215	-0.10131027621524405
-0.47686076190625215	-0.12670403013525003
-0.47679972675000215	-0.15162078235167603
-0.47673869159375215	-0.17596137988510493
-0.47667765643750215	-0.19962883520243932
-0.47661662128125215	-0.2225286666204973
-0.47655558612500215	-0.24456958283570768
-0.47649455096875215	-0.2656634944025788
-0.47643351581250215	-0.2857259559501194
-0.47637248065625215	-0.304676720485404
-0.47631144550000215	-0.32243975822459564
-0.47625041034375215	-0.33894369598125507
-0.47618937518750215	-0.3541221733488382
-0.47612834003125215	-0.3679139645993245
-0.47606730487500215	-0.38026328747971777
-0.47600626971875215	-0.3911200918529133
-0.47594523456250215	-0.4004401353193651
-0.47588419940625215	-0.4081852365847108
-0.47582316425000215	-0.41432346135920983
-0.47576212909375215	-0.41882915650507596
-0.47570109393750215	-0.42168312833074045
-0.47564005878125215	-0.4228727211418593
-0.47557902362500215	-0.4223918191797597
-0.47551798846875215	-0.42024093331509577
-0.47545695331250215	-0.4164271708653401
-0.47539591815625215	-0.41096420810761336
-0.47533488300000215	-0.4038722742793479
-0.47527384784375215	-0.39517802518822975
-0.47521281268750215	-0.3849144834831899
-0.47515177753125215	-0.37312090942562487
-0.47509074237500215	-0.3598425993479336
-0.47502970721875215	-0.34513079110300643
-0.47496867206250215	-0.32904240235223187
-0.47490763690625215	-0.31163981008580316
-0.47484660175000215	-0.29299066598982315
-0.47478556659375215	-0.27316756439166606
-0.47472453143750215	-0.2522477931334458
-0.47466349628125215	-0.2303130168432636
-0.47460246112500215	-0.2074489740725159
-0.47454142596875215	-0.18374512647678767
-0.47448039081250215	-0.15929431361819632
-0.47441935565625215	-0.13419235888336922
-0.47435832050000215	-0.10853776190574252
-0.47429728534375215	-0.08243124283041878
-0.47423625018750215	-0.05597532107618666
-0.47417521503125215	-0.029274099337503082
-0.47411417987500215	-0.002432537135883051
-0.47405314471875215	0.02444370720675035
-0.47399210956250215	0.05124867930190433
-0.47393107440625215	0.07787687605459416
-0.47387003925000215	0.10422321826008289
-0.47380900409375215	0.13018373742561037
-0.47374796893750215	0.1556560465020368
-0.47368693378125215	0.18053944897348342
-0.47362589862500215	0.20473564195546992
-0.47356486346875215	0.22814898035598413
-0.47350382831250215	0.25068678504417213
-0.47344279315625215	0.27225984512121
-0.47338175800000215	0.29278274530985093
-0.47332072284375215	0.3121740887407628
-0.47325968768750215	0.33035695572719004
-0.47319865253125215	0.3472592309165481
-0.47313761737500215	0.36281367693073363
-0.47307658221875215	0.3769584727234467
-0.47301554706250215	0.3896373256124736
-0.47295451190625215	0.40079962520936696
-0.47289347675000215	0.41040084934485177
-0.47283244159375215	0.4184025516204289
-0.47277140643750215	0.4247725971828774
-0.47271037128125215	0.42948533927615845
-0.47264933612500215	0.4325216162913177
-0.47258830096875215	0.43386891471199823
-0.47252726581250215	0.4335214018499517
-0.47246623065625215	0.43147993000368023
-0.47240519550000215	0.4277520667024527
-0.47234416034375215	0.4223520446741311
-0.47228312518750215	0.41530072289007736
-0.47222209003125215	0.4066255094896626
-0.47216105487500215	0.3963602265369008
-0.47210001971875215	0.3845450360735208
-0.47203898456250215	0.37122622379118386
-0.47197794940625215	0.3564560382257974
-0.47191691425000215	0.34029254234341316
-0.47185587909375215	0.3227992663026717
-0.47179484393750215	0.30404506713390733
-0.47173380878125215	0.28410384254008886
-0.47167277362500215	0.2630541592879251
-0.47161173846875215	0.24097902720449288
-0.47155070331250215	0.2179655772939693
-0.47148966815625215	0.19410463332987749
-0.47142863300000215	0.16949041155828537
-0.47136759784375215	0.14422020511345482
-0.47130656268750215	0.11839385369362761
-0.47124552753125215	0.0921134576198273
-0.47118449237500215	0.06548299758355673
-0.47112345721875215	0.038607783857181895
-0.47106242206250215	0.011594172990699468
-0.47100138690625215	-0.015450870659268907
-0.47094035175000215	-0.042420298768321194
-0.47087931659375215	-0.06920731148035852
-0.47081828143750215	-0.09570576393322731
-0.47075724628125215	-0.12181068071204049
-0.47069621112500215	-0.14741864986090394
-0.47063517596875215	-0.17242811800044253
-0.47057414081250215	-0.1967399461573954
-0.47051310565625215	-0.22025778752144107
-0.47045207050000215	-0.24288832856313336
