Time	Frequency
-0.5000476831249969	1.6032341857700256e-24
-0.4999866479687469	1.610808948892934e-24
-0.4999256128124969	1.6136744541996679e-24
-0.4998645776562469	1.6118226956510725e-24
-0.4998035424999969	1.6052592525869117e-24
-0.4997425073437469	1.5940035516162076e-24
-0.4996814721874969	1.5780886248305618e-24
-0.4996204370312469	1.5575610375065272e-24
-0.4995594018749969	1.5324808658494251e-24
-0.4994983667187469	1.5029214182219464e-24
-0.4994373315624969	1.4689690458131497e-24
-0.4993762964062469	1.4307229822448829e-24
-0.4993152612499969	1.388294933900825e-24
-0.4992542260937469	1.3418088583727069e-24
-0.4991931909374969	1.2914005491185279e-24
-0.4991321557812469	1.237217319769929e-24
-0.4990711206249969	1.179417466256736e-24
-0.4990100854687469	1.1181698936269468e-24
-0.4989490503124969	1.053653693319852e-24
-0.4988880151562469	9.860573760121997e-25
-0.4988269799999969	9.155786747071846e-25
-0.4987659448437469	8.424236998800279e-25
-0.4987049096874969	7.668063581855619e-25
-0.4986438745312469	6.88948077449699e-25
-0.4985828393749969	6.090765686811239e-25
-0.4985218042187469	5.274256773808913e-25
-0.4984607690624969	4.4423460840919505e-25
-0.4983997339062469	3.5974685047858076e-25
-0.4983386987499969	2.7421011838395914e-25
-0.4982776635937469	1.8787501094121296e-25
-0.4982166284374969	1.0099464753570481e-25
-0.4981555932812469	1.382393188804601e-26
-0.4980945581249969	-7.338154997981907e-26
-0.4980335229687469	-1.6036574420139117e-25
-0.4979724878124969	-2.4687322792348896e-25
-0.4979114526562469	-3.3265002046157273e-25
-0.4978504174999969	-4.1744396241744685e-25
-0.4977893823437469	-5.010057291016802e-25
-0.4977283471874969	-5.830896206566114e-25
-0.4976673120312469	-6.634540072588828e-25
-0.4976062768749969	-7.418622125735862e-25
-0.4975452417187469	-8.180832825318248e-25
-0.4974842065624969	-8.918923971274695e-25
-0.4974231714062469	-9.630717707321325e-25
-0.4973621362499969	-1.0314113748769545e-24
-0.4973011010937469	-1.0967090454243306e-24
-0.4972400659374969	-1.1587716576096502e-24
-0.4971790307812469	-1.2174155509900657e-24
-0.4971179956249969	-1.2724666601087891e-24
-0.4970569604687469	-1.3237616332353314e-24
-0.4969959253124969	-1.3711479838636564e-24
-0.4969348901562469	-1.414484392071198e-24
-0.4968738549999969	-1.4536415682782239e-24
-0.4968128198437469	-1.4885022816172564e-24
-0.4967517846874969	-1.518961728787217e-24
-0.4966907495312469	-1.5449280999805509e-24
-0.4966297143749969	-1.5663225971876936e-24
-0.4965686792187469	-1.5830796767815715e-24
-0.4965076440624969	-1.5951475258811177e-24
-0.4964466089062469	-1.6024878887400222e-24
-0.4963855737499969	-1.6050762854253984e-24
-0.4963245385937469	-1.6029023092372732e-24
-0.4962635034374969	-1.5959692906555105e-24
-0.4962024682812469	-1.5842945864483661e-24
-0.4961414331249969	-1.567909443124636e-24
-0.4960803979687469	-1.5468588685941563e-24
-0.4960193628124969	-1.5212015509160455e-24
-0.4959583276562469	-1.4910097365448217e-24
-0.4958972924999969	-1.4563689174656379e-24
-0.4958362573437469	-1.417377690918294e-24
-0.4957752221874969	-1.3741474458519668e-24
-0.4957141870312469	-1.326801965712834e-24
-0.4956531518749969	-1.2754772746997059e-24
-0.4955921167187469	-1.2203209635038214e-24
-0.4955310815624969	-1.1614920298432068e-24
-0.4954700464062469	-1.0991602674954977e-24
-0.4954090112499969	-1.0335057881675478e-24
-0.4953479760937469	-9.64718579248545e-25
-0.4952869409374969	-8.929978404934152e-25
-0.4952259057812469	-8.185515302517611e-25
-0.4951648706249969	-7.4159562475487215e-25
-0.4951038354687469	-6.623536285675717e-25
-0.4950428003124969	-5.810558505694532e-25
-0.4949817651562469	-4.979386382754721e-25
-0.4949207299999969	-4.132440276257828e-25
-0.4948596948437469	-3.2721847866625234e-25
-0.4947986596874969	-2.4011275702174147e-25
-0.4947376245312469	-1.5218090404621363e-25
-0.4946765893749969	-6.367923425709357e-26
-0.4946155542187469	2.5133694822461132e-26
-0.4945545190624969	1.139987265042286e-25
-0.4944934839062469	2.0265596397351856e-25
-0.4944324487499969	2.9084638322821226e-25
-0.4943714135937469	3.783119379222635e-25
-0.4943103784374969	4.647964758649595e-25
-0.4942493432812469	5.500470955501526e-25
-0.4941883081249969	6.338135716810547e-25
-0.4941272729687469	7.158506378596394e-25
-0.4940662378124969	7.959175846778662e-25
-0.4940052026562469	8.737792128860646e-25
-0.4939441674999969	9.4920710366616e-25
-0.4938831323437469	1.0219793753296731e-24
-0.4938220971874969	1.0918821061983124e-24
-0.4937610620312469	1.1587095500974052e-24
-0.4937000268749969	1.2222647991739833e-24
-0.4936389917187469	1.2823605851930478e-24
-0.4935779565624969	1.3388194741908738e-24
-0.4935169214062469	1.3914747486693917e-24
-0.4934558862499969	1.4401706494815682e-24
-0.4933948510937469	1.484762950895055e-24
-0.4933338159374969	1.5251193852026945e-24
-0.4932727807812469	1.561119962292749e-24
-0.4932117456249969	1.5926575173026788e-24
-0.4931507104687469	1.6196376799131899e-24
-0.4930896753124969	1.641979612519058e-24
-0.4930286401562469	1.6596158593055456e-24
-0.4929676049999969	1.6724927150708403e-24
-0.4929065698437469	1.6805705393327602e-24
-0.4928455346874969	1.6838234826569446e-24
-0.4927844995312469	1.682240024849115e-24
-0.4927234643749969	1.675822702723646e-24
-0.4926624292187469	1.6645881858112832e-24
-0.4926013940624969	1.6485673381327373e-24
-0.4925403589062469	1.6278049961463918e-24
-0.4924793237499969	1.6023599073019745e-24
-0.4924182885937469	1.5723045898065099e-24
-0.4923572534374969	1.5377250734988339e-24
-0.4922962182812469	1.4987206760731468e-24
-0.4922351831249969	1.4554037384952291e-24
-0.4921741479687469	1.407899254858195e-24
-0.4921131128124969	1.3563445571473918e-24
-0.4920520776562469	1.300888913509246e-24
-0.4919910424999969	1.2416930766327463e-24
-0.4919300073437469	1.178928731410638e-24
-0.4918689721874969	1.1127783117205345e-24
-0.4918079370312469	1.0434339803127637e-24
-0.4917469018749969	9.710974603923253e-25
-0.4916858667187469	8.9597949889643e-25
-0.4916248315624969	8.18298584497242e-25
-0.4915637964062469	7.382813888096864e-25
-0.4915027612499969	6.561611960303114e-25
-0.4914417260937469	5.721773075976088e-25
-0.4913806909374969	4.865752682895759e-25
-0.4913196557812469	3.996047381765621e-25
-0.4912586206249969	3.1151977769942936e-25
-0.4911975854687469	2.225779870732476e-25
-0.4911365503124969	1.3303909529047989e-25
-0.4910755151562469	4.3165208083905836e-26
-0.4910144799999969	-4.6781034722302194e-26
-0.4909534448437469	-1.365362551031647e-25
-0.4908924096874969	-2.258377256668237e-25
-0.4908313745312469	-3.1442432220391046e-25
-0.4907703393749969	-4.0203607040472516e-25
-0.4907093042187469	-4.884168311984452e-25
-0.4906482690624969	-5.733133457527871e-25
-0.4905872339062469	-6.56476550658517e-25
-0.4905261987499969	-7.376631839531734e-25
-0.4904651635937469	-8.16634733409524e-25
-0.4904041284374969	-8.93159905720507e-25
-0.4903430932812469	-9.670142095715516e-25
-0.4902820581249969	-1.0379808338409814e-24
-0.4902210229687469	-1.1058519066707252e-24
-0.4901599878124969	-1.170427905194812e-24
-0.4900989526562469	-1.2315195751778319e-24
-0.4900379174999969	-1.2889475836825926e-24
-0.4899768823437469	-1.3425432869765859e-24
-0.4899158471874969	-1.392149524941926e-24
-0.4898548120312469	-1.4376205941246167e-24
-0.4897937768749969	-1.4788231292082126e-24
-0.4897327417187469	-1.5156361671791023e-24
-0.4896717065624969	-1.5479518158828584e-24
-0.4896106714062469	-1.575675227459063e-24
-0.4895496362499969	-1.5987251753116528e-24
-0.4894886010937469	-1.6170342956040866e-24
-0.4894275659374969	-1.6305489272104846e-24
-0.4893665307812469	-1.6392297964600652e-24
-0.4893054956249969	-1.64305178222464e-24
-0.4892444604687469	-1.6420040348424888e-24
-0.4891834253124969	-1.6360902149542234e-24
-0.4891223901562469	-1.6253282383527752e-24
-0.4890613549999969	-1.6097503938321445e-24
-0.4890003198437469	-1.5894031994635898e-24
-0.4889392846874969	-1.5643472480265588e-24
-0.4888782495312469	-1.5346571190466607e-24
-0.4888172143749969	-1.5004210155358286e-24
-0.4887561792187469	-1.4617406959524607e-24
-0.4886951440624969	-1.418731042580615e-24
-0.4886341089062469	-1.3715197244521388e-24
-0.4885730737499969	-1.3202469744211026e-24
-0.4885120385937469	-1.2650649673025303e-24
-0.4884510034374969	-1.2061375544592492e-24
-0.4883899682812469	-1.143639725432652e-24
-0.4883289331249969	-1.0777569689708376e-24
-0.4882678979687469	-1.0086850201078945e-24
-0.4882068628124969	-9.366289948297364e-25
-0.4881458276562469	-8.618028398877954e-25
-0.4880847924999969	-7.84429040861959e-25
-0.4880237573437469	-7.047373358570513e-25
-0.4879627221874969	-6.229646202802684e-25
-0.4879016870312469	-5.393541050940719e-25
-0.4878406518749969	-4.54154148641248e-25
-0.4877796167187469	-3.6761837277444703e-25
-0.4877185815624969	-2.8000410025561077e-25
-0.4876575464062469	-1.9157201773635762e-25
-0.4875965112499969	-1.0258545787083732e-25
-0.4875354760937469	-1.3309207389918355e-26
-0.4874744409374969	7.599067828521103e-26
-0.4874134057812469	1.6504826903665948e-25
-0.4873523706249969	2.535980514740903e-25
-0.4872913354687469	3.41376075619666e-25
-0.4872303003124969	4.281205135616571e-25
-0.4871692651562469	5.135724286617843e-25
-0.4871082299999969	5.974769402783854e-25
-0.4870471948437469	6.795832561925865e-25
-0.4869861596874969	7.596460874250336e-25
-0.4869251245312469	8.374261224756568e-25
-0.4868640893749969	9.126906182535146e-25
-0.4868030542187469	9.85214247438693e-25
-0.4867420190624969	1.0547798344891473e-24
-0.4866809839062469	1.1211787647046261e-24
-0.4866199487499969	1.1842118332539687e-24
-0.4865589135937469	1.2436898072394246e-24
-0.4864978784374969	1.2994336827083141e-24
-0.4864368432812469	1.3512758557125866e-24
-0.4863758081249969	1.399059980332188e-24
-0.4863147729687469	1.4426417061889342e-24
-0.4862537378124969	1.4818892828565853e-24
-0.4861927026562469	1.5166836334972728e-24
-0.4861316674999969	1.5469189227534417e-24
-0.4860706323437469	1.572502794040222e-24
-0.4860095971874969	1.5933567483004258e-24
-0.4859485620312469	1.6094162248010642e-24
-0.4858875268749969	1.620630928856724e-24
-0.4858264917187469	1.6269649686229436e-24
-0.4857654565624969	1.62839690312196e-24
-0.4857044214062469	1.6249198967449705e-24
-0.4856433862499969	1.6165416926160222e-24
-0.4855823510937469	1.6032846223048819e-24
-0.4855213159374969	1.5851855148083796e-24
-0.4854602807812469	1.5622956668375484e-24
-0.4853992456249969	1.5346805836585547e-24
-0.4853382104687469	1.5024199261338314e-24
-0.4852771753124969	1.4656071739708264e-24
-0.4852161401562469	1.4243493708312391e-24
-0.4851551049999969	1.3787669255372564e-24
-0.4850940698437469	1.328993065200102e-24
-0.4850330346874969	1.2751736191726247e-24
-0.4849719995312469	1.2174665339459847e-24
-0.4849109643749969	1.1560413726818823e-24
-0.4848499292187469	1.0910788199700695e-24
-0.4847888940624969	1.0227702532977889e-24
-0.4847278589062469	9.513171085761517e-25
-0.4846668237499969	8.769301245287695e-25
-0.4846057885937469	7.998291032678988e-25
-0.4845447534374969	7.20241930749426e-25
-0.4844837182812469	6.384039038604901e-25
-0.4844226831249969	5.545574017211211e-25
-0.4843616479687469	4.689506396034992e-25
-0.4843006128124969	3.8183739047446452e-25
-0.4842395776562469	2.93475948037048e-25
-0.4841785424999969	2.0412849201194516e-25
-0.4841175073437469	1.140603038258496e-25
-0.4840564721874969	2.3538801849205393e-26
-0.4839954370312469	-6.716677626745183e-26
-0.4839344018749969	-1.5778692439549648e-25
-0.4838733667187469	-2.480519166903536e-25
-0.4838123315624969	-3.3769301047976057e-25
-0.4837512964062469	-4.264433760703689e-25
-0.4836902612499969	-5.140382936338947e-25
-0.4836292260937469	-6.002168463288601e-25
-0.4835681909374969	-6.8472174757078425e-25
-0.4835071557812469	-7.67300681143491e-25
-0.4834461206249969	-8.477072676818405e-25
-0.4833850854687469	-9.257007755825925e-25
-0.4833240503124969	-1.0010481908984957e-24
-0.4832630151562469	-1.073523949720982e-24
-0.4832019799999969	-1.1429107805579046e-24
-0.4831409448437469	-1.2090008894508857e-24
-0.4830799096874969	-1.2715957674992431e-24
-0.4830188745312469	-1.3305074547771348e-24
-0.4829578393749969	-1.3855588081008721e-24
-0.4828968042187469	-1.4365840094478767e-24
-0.4828357690624969	-1.4834292367565403e-24
-0.4827747339062469	-1.525952980342283e-24
-0.4827136987499969	-1.5640264707696952e-24
-0.4826526635937469	-1.5975342577508083e-24
-0.4825916284374969	-1.6263742694653765e-24
-0.4825305932812469	-1.6504583680723255e-24
-0.4824695581249969	-1.66971255905738e-24
-0.4824085229687469	-1.6840770354930993e-24
-0.4823474878124969	-1.6935067424037674e-24
-0.4822864526562469	-1.6979710992225982e-24
-0.4822254174999969	-1.697454377107314e-24
-0.4821643823437469	-1.6919557084440464e-24
-0.4821033471874969	-1.681488967735239e-24
-0.4820423120312469	-1.66608290999425e-24
-0.4819812768749969	-1.6457809665854067e-24
-0.4819202417187469	-1.620641199736256e-24
-0.4818592065624969	-1.590736074362617e-24
-0.4817981714062469	-1.5561523187418861e-24
-0.4817371362499969	-1.5169906184109574e-24
-0.4816761010937469	-1.473365329990588e-24
-0.4816150659374969	-1.4254041951458563e-24
-0.4815540307812469	-1.3732478767276476e-24
-0.4814929956249969	-1.3170496727044825e-24
-0.4814319604687469	-1.256974895215899e-24
-0.4813709253124969	-1.193200600366602e-24
-0.4813098901562469	-1.1259148558272583e-24
-0.4812488549999969	-1.055316234507075e-24
-0.4811878198437469	-9.81613499467303e-25
-0.4811267846874969	-9.050243694207438e-25
-0.4810657495312469	-8.257756553736893e-25
-0.4810047143749969	-7.441020001491748e-25
-0.4809436792187469	-6.602452258829202e-25
-0.4808826440624969	-5.744541554008498e-25
-0.4808216089062469	-4.8698309883843405e-25
-0.4807605737499969	-3.980916611236455e-25
-0.4806995385937469	-3.080437348839041e-25
-0.4806385034374969	-2.1710686772564673e-25
-0.4805774682812469	-1.2555117737657982e-25
-0.4805164331249969	-3.3648858522580894e-26
-0.4804553979687469	5.832664295633889e-26
-0.4803943628124969	1.5010198451309427e-25
-0.4803333276562469	2.414037705674478e-25
-0.4802722924999969	3.31960298636292e-25
-0.4802112573437469	4.21501908739115e-25
-0.4801502221874969	5.097616909304962e-25
-0.4800891870312469	5.964768245354684e-25
-0.4800281518749969	6.813886490785307e-25
-0.4799671167187469	7.642440324661206e-25
-0.4799060815624969	8.44795763817169e-25
-0.4798450464062469	9.228035313816105e-25
-0.4797840112499969	9.980345447123835e-25
-0.4797229760937469	1.0702640411318208e-24
-0.4796619409374969	1.1392764399419762e-24
-0.4796009057812469	1.2048655341187724e-24
-0.4795398706249969	1.2668352576448264e-24
-0.4794788354687469	1.325000458753795e-24
-0.4794178003124969	1.3791871558762174e-24
-0.4793567651562469	1.4292332262736433e-24
-0.4792957299999969	1.4749890399411668e-24
-0.4792346948437469	1.5163175072920106e-24
-0.4791736596874969	1.5530949750524313e-24
-0.4791126245312469	1.5852112455521865e-24
-0.4790515893749969	1.6125700033192851e-24
-0.4789905542187469	1.6350893475207202e-24
-0.4789295190624969	1.6527015829566549e-24
-0.4788684839062469	1.6653538764026614e-24
-0.4788074487499969	1.67300817447042e-24
-0.4787464135937469	1.675641359211137e-24
-0.4786853784374969	1.673245408220341e-24
-0.4786243432812469	1.665827321305146e-24
-0.4785633081249969	1.6534091761641664e-24
-0.4785022729687469	1.6360280394888393e-24
-0.4784412378124969	1.6137358707686057e-24
-0.4783802026562469	1.5865993801455307e-24
-0.4783191674999969	1.554699805563682e-24
-0.4782581323437469	1.5181327315792362e-24
-0.4781970971874969	1.4770077507382746e-24
-0.4781360620312469	1.4314481514323803e-24
-0.4780750268749969	1.3815906349299611e-24
-0.4780139917187469	1.3275847479346908e-24
-0.4779529565624969	1.269592621524661e-24
-0.4778919214062469	1.2077883769714118e-24
-0.4778308862499969	1.1423575937616777e-24
-0.4777698510937469	1.073496899294413e-24
-0.4777088159374969	1.001413189432585e-24
-0.4776477807812469	9.263231233453864e-25
-0.4775867456249969	8.484525731321454e-25
-0.4775257104687469	7.680356422463438e-25
-0.4774646753124969	6.853143356881001e-25
-0.4774036401562469	6.005376093454475e-25
-0.4773426049999969	5.139605546872229e-25
-0.4772815698437469	4.258440890531247e-25
-0.4772205346874969	3.3645338798275715e-25
-0.4771594995312469	2.460578823314837e-25
-0.4770984643749969	1.54930128219781e-25
-0.4770374292187469	6.334464823195936e-26
-0.4769763940624969	-2.8422155924907687e-26
-0.4769153589062469	-1.2009355912496183e-25
-0.4768543237499969	-2.11392852708363e-25
-0.4767932885937469	-3.0204446637942505e-25
-0.4767322534374969	-3.917745633698458e-25
-0.4766712182812469	-4.803120410622522e-25
-0.4766101831249969	-5.673894632171132e-25
-0.4765491479687469	-6.527433060201004e-25
-0.4764881128124969	-7.3611557174786e-25
-0.4764270776562469	-8.172538426972517e-25
-0.4763660424999969	-8.959125422436952e-25
-0.4763050073437469	-9.718533114118709e-25
-0.4762439721874969	-1.0448458837928992e-24
-0.4761829370312469	-1.1146691732972132e-24
-0.4761219018749969	-1.1811109033636437e-24
-0.4760608667187469	-1.2439695234454347e-24
-0.4759998315624969	-1.3030539798725887e-24
-0.4759387964062469	-1.358184292745513e-24
-0.4758777612499969	-1.4091928273035363e-24
-0.4758167260937469	-1.4559239019562144e-24
-0.4757556909374969	-1.4982348608336226e-24
-0.4756946557812469	-1.5359963157073034e-24
-0.4756336206249969	-1.569092476605253e-24
-0.4755725854687469	-1.5974217477740887e-24
-0.4755115503124969	-1.6208966492990058e-24
-0.4754505151562469	-1.6394444905703e-24
-0.4753894799999969	-1.653007430623646e-24
-0.4753284448437469	-1.6615424712065435e-24
-0.4752674096874969	-1.665021982414792e-24
-0.4752063745312469	-1.6634335011888042e-24
-0.4751453393749969	-1.6567797960030528e-24
-0.4750843042187469	-1.6450790617841476e-24
-0.4750232690624969	-1.6283646454816242e-24
-0.4749622339062469	-1.6066850725949932e-24
-0.4749011987499969	-1.5801039253661008e-24
-0.4748401635937469	-1.5486995574386929e-24
-0.4747791284374969	-1.512564970097443e-24
-0.4747180932812469	-1.4718074884653917e-24
-0.4746570581249969	-1.4265484437126426e-24
-0.4745960229687469	-1.3769228007266125e-24
-0.4745349878124969	-1.3230788755418644e-24
-0.4744739526562469	-1.265177625187046e-24
-0.4744129174999969	-1.2033925090300343e-24
-0.4743518823437469	-1.1379087462585451e-24
-0.4742908471874969	-1.068922701937782e-24
-0.4742298120312469	-9.966417393169566e-25
-0.4741687768749969	-9.212827898989728e-25
-0.4741077417187469	-8.430726642366702e-25
-0.4740467065624969	-7.622466820894475e-25
-0.4739856714062469	-6.7904800577033265e-25
-0.4739246362499969	-5.937275478877669e-25
-0.4738636010937469	-5.065423177894918e-25
-0.4738025659374969	-4.1775523641453425e-25
-0.4737415307812469	-3.276342595174344e-25
-0.4736804956249969	-2.3645149962888266e-25
-0.4736194604687469	-1.4448225504712627e-25
-0.4735584253124969	-5.200445282538989e-26
-0.4734973901562469	4.0702203087586415e-26
-0.4734363549999969	1.3335747029490333e-25
-0.4733753198437469	2.256808999179979e-25
-0.4733142846874969	3.173927934464236e-25
-0.4732532495312469	4.082156851352903e-25
-0.4731922143749969	4.978740632117323e-25
-0.4731311792187469	5.86096049670308e-25
-0.4730701440624969	6.726143308385064e-25
-0.4730091089062469	7.571658098111984e-25
-0.4729480737499969	8.394940192799404e-25
-0.4728870385937469	9.19348770217084e-25
-0.4728260034374969	9.964869667886576e-25
-0.4727649682812469	1.0706741852172174e-24
-0.4727039331249969	1.1416843802903326e-24
-0.4726428979687469	1.2093011243317155e-24
-0.4725818628124969	1.2733182522445813e-24
-0.4725208276562469	1.3335402625203192e-24
-0.4724597924999969	1.3897831883653007e-24
-0.4723987573437469	1.4418748432029723e-24
-0.4723377221874969	1.4896557030149085e-24
-0.4722766870312469	1.5329791446394356e-24
-0.4722156518749969	1.5717118626149475e-24
-0.4721546167187469	1.6057346312877445e-24
-0.4720935815624969	1.6349421767338059e-24
-0.4720325464062469	1.6592439170875345e-24
-0.4719715112499969	1.678564030063757e-24
-0.4719104760937469	1.6928417428052345e-24
-0.4718494409374969	1.7020315566235878e-24
-0.4717884057812469	1.7061032758069254e-24
