Time	Frequency
-0.5000178808750064	0.2515704888380097
-0.4999568457187564	0.2241136731919731
-0.4998958105625064	0.19550436846703667
-0.4998347754062564	0.16588508910795968
-0.4997737402500064	0.1354037181650437
-0.4997127050937564	0.10421259805139485
-0.4996516699375064	0.07246751035561184
-0.4995906347812564	0.04032735381298435
-0.4995295996250064	0.007953018355307474
-0.4994685644687564	-0.02449340928388078
-0.4994075293125064	-0.0568492708261284
-0.4993464941562564	-0.08895229761101618
-0.4992854590000064	-0.12064143794206737
-0.4992244238437564	-0.1517576402107903
-0.4991633886875064	-0.18214455559211049
-0.4991023535312564	-0.21164945296900473
-0.4990413183750064	-0.24012408391546805
-0.4989802832187564	-0.2674250741421564
-0.4989192480625064	-0.293414990156172
-0.4988582129062564	-0.3179630241873133
-0.4987971777500064	-0.3409453147226676
-0.4987361425937564	-0.3622459963429341
-0.4986751074375064	-0.3817575474592464
-0.4986140722812564	-0.3993813536975287
-0.4985530371250064	-0.41502831481704433
-0.4984920019687564	-0.428619142679783
-0.4984309668125064	-0.4400849165442445
-0.4983699316562564	-0.44936737516226255
-0.4983088965000064	-0.45641916115359094
-0.4982478613437564	-0.46120413150960526
-0.4981868261875064	-0.46369756531917783
-0.4981257910312564	-0.4638862173578922
-0.4980647558750064	-0.46176843562094866
-0.4980037207187564	-0.4573541780912607
-0.4979426855625064	-0.4506649561774557
-0.4978816504062564	-0.4417337412964747
-0.4978206152500064	-0.4306047694771942
-0.4977595800937564	-0.41733338775280066
-0.4976985449375064	-0.40198572137717276
-0.4976375097812564	-0.38463835887892023
-0.4975764746250064	-0.3653780038550148
-0.4975154394687564	-0.3443009982103244
-0.4974544043125064	-0.3215128510185604
-0.4973933691562564	-0.2971277255135858
-0.4973323340000064	-0.2712678902803889
-0.4972712988437564	-0.24406300709596498
-0.4972102636875064	-0.21564958704679563
-0.4971492285312564	-0.18617029743884098
-0.4970881933750064	-0.15577309000934703
-0.4970271582187564	-0.12461073159179119
-0.4969661230625064	-0.09283980484182959
-0.4969050879062564	-0.06061988003790447
-0.4968440527500064	-0.02811309126951529
-0.4967830175937564	0.004517210891721321
-0.4967219824375064	0.03710691567063887
-0.4966609472812564	0.06949201213682313
-0.4965999121250064	0.1015096974279277
-0.4965388769687564	0.13299874481759147
-0.4964778418125064	0.16380078778490786
-0.4964168066562564	0.19376080517237634
-0.4963557715000064	0.2227279524777788
-0.4962947363437564	0.25055652083934443
-0.4962337011875064	0.27710643730878315
-0.4961726660312564	0.3022440524418371
-0.4961116308750064	0.3258428976465926
-0.4960505957187564	0.34778431282502165
-0.4959895605625064	0.36795782796815524
-0.4959285254062564	0.38626208686913244
-0.4958674902500064	0.4026051102177564
-0.4958064550937564	0.41690477890517014
-0.4957454199375064	0.4290894114110676
-0.4956843847812564	0.43909791218496647
-0.4956233496250064	0.4468803067463114
-0.4955623144687564	0.45239781279198343
-0.4955012793125064	0.45562312406080296
-0.4954402441562564	0.45654060730144985
-0.4953792090000064	0.4551462381183513
-0.4953181738437564	0.45144776222195815
-0.4952571386875064	0.4454646115478457
-0.4951961035312564	0.4372277597720255
-0.4951350683750064	0.42677967578928194
-0.4950740332187564	0.41417399918738346
-0.4950129980625064	0.39947533927329576
-0.4949519629062564	0.38275898253580953
-0.4948909277500064	0.364110362100647
-0.4948298925937564	0.3436248275667854
-0.4947688574375064	0.3214070647527829
-0.4947078222812564	0.29757046599860165
-0.4946467871250064	0.2722367776233712
-0.4945857519687564	0.24553536391595793
-0.4945247168125064	0.2176024435877182
-0.4944636816562564	0.18858063250777635
-0.4944026465000064	0.15861808448474723
-0.4943416113437564	0.1278676625972496
-0.4942805761875064	0.09648640009112654
-0.4942195410312564	0.0646344497151367
-0.4941585058750064	0.03247442408145714
-0.4940974707187564	0.00017056193736250932
-0.4940364355625064	-0.032112236447372135
-0.4939754004062564	-0.06420900066674226
-0.4939143652500064	-0.09595585537244966
-0.4938533300937564	-0.1271905499632089
-0.4937922949375064	-0.15775343767567646
-0.4937312597812564	-0.1874883792515207
-0.4936702246250064	-0.216243201753863
-0.4936091894687564	-0.24387091674320974
-0.4935481543125064	-0.27023020105664197
-0.4934871191562564	-0.2951860551957377
-0.4934260840000064	-0.31861071672999414
-0.4933650488437564	-0.34038422083035597
-0.4933040136875064	-0.3603949670133095
-0.4932429785312564	-0.3785402602582015
-0.4931819433750064	-0.39472700497931257
-0.4931209082187564	-0.4088720782522927
-0.4930598730625064	-0.4209026602340789
-0.4929988379062564	-0.4307567972124415
-0.4929378027500064	-0.4383836435341235
-0.4928767675937564	-0.443743657057564
-0.4928157324375064	-0.44680890456822697
-0.4927546972812564	-0.4475631775362712
-0.4926936621250064	-0.4460020512067273
-0.4926326269687564	-0.44213295923490253
-0.4925715918125064	-0.4359751177415649
-0.4925105566562564	-0.4275594651849644
-0.4924495215000064	-0.4169285069280702
-0.4923884863437564	-0.4041360564855033
-0.4923274511875064	-0.38924707138083153
-0.4922664160312564	-0.3723371905715263
-0.4922053808750064	-0.35349245438038884
-0.4921443457187564	-0.33280888570490424
-0.4920833105625064	-0.3103918521690204
-0.4920222754062564	-0.2863557434311126
-0.4919612402500064	-0.26082324805073
-0.4919002050937564	-0.2339247448809532
-0.4918391699375064	-0.20579771888937295
-0.4917781347812564	-0.1765859967127085
-0.4917170996250064	-0.14643897733719585
-0.4916560644687564	-0.1155109933871898
-0.4915950293125064	-0.08396049776415737
-0.4915339941562564	-0.05194902641251911
-0.4914729590000064	-0.019640773754100272
-0.4914119238437564	0.012798518147545066
-0.4913508886875064	0.04520244140303762
-0.4912898535312564	0.07740452378942611
-0.4912288183750064	0.1092393218184474
-0.4911677832187564	0.14054312903932298
-0.4911067480625064	0.1711549246001734
-0.4910457129062564	0.2009170273266123
-0.4909846777500064	0.22967605000850794
-0.4909236425937564	0.2572837618647162
-0.4908626074375064	0.2835974808989593
-0.4908015722812564	0.30848127129456215
-0.4907405371250064	0.3318064048016733
-0.4906795019687564	0.35345186274250595
-0.4906184668125064	0.3733054049892074
-0.4905574316562564	0.39126370455277715
-0.4904963965000064	0.40723308284104004
-0.4904353613437564	0.42113008056180423
-0.4903743261875064	0.43288165131113426
-0.4903132910312564	0.44242577509715697
-0.4902522558750064	0.4497116281613988
-0.4901912207187564	0.4546999284199449
-0.4901301855625064	0.45736312344443497
-0.4900691504062564	0.4576855070601233
-0.4900081152500064	0.4556633737478489
-0.4899470800937564	0.45130498011960773
-0.4898860449375064	0.4446305461929269
-0.4898250097812564	0.4356721454544327
-0.4897639746250064	0.4244735747917564
-0.4897029394687564	0.41109008500276506
-0.4896419043125064	0.3955881449390503
-0.4895808691562564	0.37804514902425757
-0.4895198340000064	0.35854890087627056
-0.4894587988437564	0.33719729257644054
-0.4893977636875064	0.3140978030657082
-0.4893367285312564	0.2893668571882948
-0.4892756933750064	0.263129335574273
-0.4892146582187564	0.23551788639703278
-0.4891536230625064	0.20667229088476752
-0.4890925879062564	0.17673873348838925
-0.4890315527500064	0.14586901454613402
-0.4889705175937564	0.11421987015854473
-0.4889094824375064	0.08195212369107473
-0.4888484472812564	0.049229816579331946
-0.4887874121250064	0.016219458543894432
-0.4887263769687564	-0.016910869306566472
-0.4886653418125064	-0.04999234791409688
-0.4886043066562564	-0.08285632237237076
-0.4885432715000064	-0.11533516289712854
-0.4884822363437564	-0.14726304101226395
-0.4884212011875064	-0.17847688512040316
-0.4883601660312564	-0.20881716087343732
-0.4882991308750064	-0.2381287205111988
-0.4882380957187564	-0.2662615454611772
-0.4881770605625064	-0.2930715407506111
-0.4881160254062564	-0.31842133761274616
-0.4880549902500064	-0.3421809398324461
-0.4879939550937564	-0.36422833800622006
-0.4879329199375064	-0.3844502456406461
-0.4878718847812564	-0.4027426781251109
-0.4878108496250064	-0.419011388470313
-0.4877498144687564	-0.43317244588200443
-0.4876887793125064	-0.4451526234202927
-0.4876277441562564	-0.45488984568134355
-0.4875667090000064	-0.4623334325616548
-0.4875056738437564	-0.4674443646011991
-0.4874446386875064	-0.47019560224365586
-0.4873836035312564	-0.470572098289187
-0.4873225683750064	-0.46857091453268856
-0.4872615332187564	-0.4642013233457501
-0.4872004980625064	-0.4574846557026507
-0.4871394629062564	-0.4484542609008125
-0.4870784277500064	-0.4371553425901018
-0.4870173925937564	-0.42364468142446804
-0.4869563574375064	-0.407990449166285
-0.4868953222812564	-0.39027173285474265
-0.4868342871250064	-0.37057823975728266
-0.4867732519687564	-0.34900984115286715
-0.4867122168125064	-0.3256759471152831
-0.4866511816562564	-0.3006951072894141
-0.4865901465000064	-0.2741943370589029
-0.4865291113437564	-0.24630838769195956
-0.4864680761875064	-0.21717924490876853
-0.4864070410312564	-0.18695525333995663
-0.4863460058750064	-0.1557903358321599
-0.4862849707187564	-0.12384342792300995
-0.4862239355625064	-0.09127736967139728
-0.4861629004062564	-0.05825828461357679
-0.4861018652500064	-0.024954647232650097
-0.4860408300937564	0.008463584030398211
-0.4859797949375064	0.041825737670119725
-0.4859187597812564	0.07496160089168201
-0.4858577246250064	0.1077018184853689
-0.4857966894687564	0.13987916552010335
-0.4857356543125064	0.17132933922937005
-0.4856746191562564	0.20189151866244778
-0.4856135840000064	0.23140962063499368
-0.4855525488437564	0.25973276593064476
-0.4854915136875064	0.28671617580827813
-0.4854304785312564	0.31222198756905467
-0.4853694433750064	0.3361198555530915
-0.4853084082187564	0.35828763686090076
-0.4852473730625064	0.37861209369475207
-0.4851863379062564	0.39698944822345567
-0.4851253027500064	0.4133258294699591
-0.4850642675937564	0.4275379191647325
-0.4850032324375064	0.43955325855934957
-0.4849421972812564	0.4493106601510426
-0.4848811621250064	0.4567605619089704
-0.4848201269687564	0.46186522837276606
-0.4847590918125064	0.464598996915391
-0.4846980566562564	0.4649483812973467
-0.4846370215000064	0.4629121622968173
-0.4845759863437564	0.4585014016470889
-0.4845149511875064	0.4517393622010464
-0.4844539160312564	0.4426614346431249
-0.4843928808750064	0.43131491205461076
-0.4843318457187564	0.4177587917977261
-0.4842708105625064	0.40206345179096326
-0.4842097754062564	0.3843102915565846
-0.4841487402500064	0.3645913384091162
-0.4840877050937564	0.34300872167622914
-0.4840266699375064	0.31967424845208275
-0.4839656347812564	0.2947087247929016
-0.4839045996250064	0.26824137479829474
-0.4838435644687564	0.24040923113266047
-0.4837825293125064	0.21135633487349442
-0.4837214941562564	0.18123306540444228
-0.4836604590000064	0.1501953512410341
-0.4835994238437564	0.11840381376491702
-0.4835383886875064	0.08602307407214327
-0.4834773535312564	0.05322073853156105
-0.4834163183750064	0.020166589323693727
-0.4833552832187564	-0.012968123286944938
-0.4832942480625064	-0.0460118553674827
-0.4832332129062564	-0.07879350149517315
-0.4831721777500064	-0.11114317812697463
-0.4831111425937564	-0.14289329497184688
-0.4830501074375064	-0.1738793358171966
-0.4829890722812564	-0.20394069866540623
-0.4829280371250064	-0.23292151044250656
-0.4828670019687564	-0.2606714946963567
-0.4828059668125064	-0.2870467449642402
-0.4827449316562564	-0.31191036082468143
-0.4826838965000064	-0.33513335073208766
-0.4826228613437564	-0.3565951255692186
-0.4825618261875064	-0.3761841689648005
-0.4825007910312564	-0.3937987498734983
-0.4824397558750064	-0.409347252527007
-0.4823787207187564	-0.4227487515258964
-0.4823176855625064	-0.4339335131479248
-0.4822566504062564	-0.4428431923424184
-0.4821956152500064	-0.4494312396056626
-0.4821345800937564	-0.45366320730183773
-0.4820735449375064	-0.4555167598771835
-0.4820125097812564	-0.45498194786902074
-0.4819514746250064	-0.4520612238189293
-0.4818904394687564	-0.44676937386422194
-0.4818294043125064	-0.43913353295455454
-0.4817683691562564	-0.42919301071738253
-0.4817073340000064	-0.4169990592074207
-0.4816462988437564	-0.4026146817120157
-0.4815852636875064	-0.38611428646366197
-0.4815242285312564	-0.3675832414396902
-0.4814631933750064	-0.34711753408944096
-0.4814021582187564	-0.32482326264705264
-0.4813411230625064	-0.3008160136756623
-0.4812800879062564	-0.27522029475202414
-0.4812190527500064	-0.24816902793690365
-0.4811580175937564	-0.21980267941017287
-0.4810969824375064	-0.19026853983301395
-0.4810359472812564	-0.15972019184311073
-0.4809749121250064	-0.12831646773636193
-0.4809138769687564	-0.09622066702060209
-0.4808528418125064	-0.06359987332686719
-0.4807918066562564	-0.030623912631842845
-0.4807307715000064	0.0025354395050185166
-0.4806697363437564	0.035705370474497344
-0.4806087011875064	0.06871298338444437
-0.4805476660312564	0.10138596935002836
-0.4804866308750064	0.13355386633222577
-0.4804255957187564	0.1650486890426828
-0.4803645605625064	0.19570570503380139
-0.4803035254062564	0.22536469624821936
-0.4802424902500064	0.2538703697340593
-0.4801814550937564	0.28107336416204165
-0.4801204199375064	0.3068310971054488
-0.4800593847812564	0.3310082991818871
-0.4799983496250064	0.3534779029196899
-0.4799373144687564	0.37412161908368796
-0.4798762793125064	0.39283061557364735
-0.4798152441562564	0.4095060250789104
-0.4797542090000064	0.4240594191021824
-0.4796931738437564	0.4364135094372028
-0.4796321386875064	0.4465022708939395
-0.4795711035312564	0.45427138067896106
-0.4795100683750064	0.45967867548782204
-0.4794490332187564	0.46269412203464383
-0.4793879980625064	0.46330013322382946
-0.4793269629062564	0.46149166353308085
-0.4792659277500064	0.45727616183480285
-0.4792048925937564	0.450673625196031
-0.4791438574375064	0.441716468230037
-0.4790828222812564	0.43044933269114555
-0.4790217871250064	0.41692892259805464
-0.4789607519687564	0.4012236853339094
-0.4788997168125064	0.38341342859244965
-0.4788386816562564	0.3635890184807929
-0.4787776465000064	0.3418517665470793
-0.4787166113437564	0.3183130290378461
-0.4786555761875064	0.293093642103784
-0.4785945410312564	0.26632312119512974
-0.4785335058750064	0.23813926012802847
-0.4784724707187564	0.20868723113282783
-0.4784114355625064	0.17811884075570814
-0.4783504004062564	0.1465918890855825
-0.4782893652500064	0.11426918782609069
-0.4782283300937564	0.0813177849119703
-0.4781672949375064	0.04790818903034039
-0.4781062597812564	0.014213259259949972
-0.4780452246250064	-0.01959245932918839
-0.4779841894687564	-0.053333673126654636
-0.4779231543125064	-0.08683552648931293
-0.4778621191562564	-0.11992406907266778
-0.4778010840000064	-0.15242748812913987
-0.4777400488437564	-0.18417693710799002
-0.4776790136875064	-0.21500727479638948
-0.4776179785312564	-0.24475818767955293
-0.4775569433750064	-0.2732746645881557
-0.4774959082187564	-0.3004081537949133
-0.4774348730625064	-0.32601725666083986
-0.4773738379062564	-0.34996816663579994
-0.4773128027500064	-0.3721358313472176
-0.4772517675937564	-0.3924043230753846
-0.4771907324375064	-0.41066742556663566
-0.4771296972812564	-0.4268293948094393
-0.4770686621250064	-0.4408052611854745
-0.4770076269687564	-0.45252139281775355
-0.4769465918125064	-0.4619158604050749
-0.4768855566562564	-0.46893869981104275
-0.4768245215000064	-0.4735523050874528
-0.4767634863437564	-0.4757315440844688
-0.4767024511875064	-0.47546385817478803
-0.4766414160312564	-0.47274946142072
-0.4765803808750064	-0.4676012477754877
-0.4765193457187564	-0.4600447298270855
-0.4764583105625064	-0.45011799137943825
-0.4763972754062564	-0.4378714033690075
-0.4763362402500064	-0.42336742586611087
-0.4762752050937564	-0.4066802839710404
-0.4762141699375064	-0.387895561247257
-0.4761531347812564	-0.36710978188908944
-0.4760920996250064	-0.34442990884751656
-0.4760310644687564	-0.3199728033199744
-0.4759700293125064	-0.29386458228448525
-0.4759089941562564	-0.26624003599943324
-0.4758479590000064	-0.23724182170133784
-0.4757869238437564	-0.2070199087098403
-0.4757258886875064	-0.17573055382934435
-0.4756648535312564	-0.14353566296489453
-0.4756038183750064	-0.11060203518793692
-0.4755427832187564	-0.07710010365153441
-0.4754817480625064	-0.043203614540648944
-0.4754207129062564	-0.009088211255303003
-0.4753596777500064	0.02506920831194417
-0.4752986425937564	0.059091362872738924
-0.4752376074375064	0.09280185509851076
-0.4751765722812564	0.12602556229571354
-0.4751155371250064	0.15859008948795092
-0.4750545019687564	0.19032634028494824
-0.4749934668125064	0.22106937763702897
-0.4749324316562564	0.25065956235263825
-0.4748713965000064	0.27894312113288827
-0.4748103613437564	0.3057730650679492
-0.4747493261875064	0.33100988494852746
-0.4746882910312564	0.35452247682457594
-0.4746272558750064	0.3761885807087189
-0.4745662207187564	0.3958954708421738
-0.4745051855625064	0.41354084380466904
-0.4744441504062564	0.4290328793895542
-0.4743831152500064	0.4422910313080647
-0.4743220800937564	0.453246532482949
-0.4742610449375064	0.4618424237624514
-0.4742000097812564	0.46803411808827616
-0.4741389746250064	0.4717896152409484
-0.4740779394687564	0.473089573905641
-0.4740169043125064	0.4719274634295295
-0.4739558691562564	0.46830963709364987
-0.4738948340000064	0.4622552835078708
-0.4738337988437564	0.4537962809978717
-0.4737727636875064	0.4429771137979405
-0.4737117285312564	0.4298546204252421
-0.4736506933750064	0.4144976289229726
-0.4735896582187564	0.39698674727704625
-0.4735286230625064	0.37741379679501175
-0.4734675879062564	0.3558814097376395
-0.4734065527500064	0.3325025359595882
-0.4733455175937564	0.3073997348053872
-0.4732844824375064	0.2807046780468608
-0.4732234472812564	0.2525573172775824
-0.4731624121250064	0.2231053390890667
-0.4731013769687564	0.19250320058680007
-0.4730403418125064	0.16091138005370928
-0.4729793066562564	0.12849575675819672
-0.4729182715000064	0.0954263113162458
-0.4728572363437564	0.061876602816005766
-0.4727962011875064	0.028022818174393817
-0.4727351660312564	-0.005957397359408764
-0.4726741308750064	-0.03988559061953783
-0.4726130957187564	-0.07358359427498602
-0.4725520605625064	-0.10687437146270228
-0.4724910254062564	-0.13958302604662182
-0.4724299902500064	-0.17153772765362996
-0.4723689550937564	-0.20257041817336888
-0.4723079199375064	-0.2325180118231125
-0.4722468847812564	-0.2612230425292017
-0.4721858496250064	-0.28853444247041576
-0.4721248144687564	-0.3143085645719814
-0.4720637793125064	-0.33840974088602765
-0.4720027441562564	-0.36071106053938323
-0.4719417090000064	-0.38109509343578174
-0.4718806738437564	-0.3994543992663698
-0.4718196386875064	-0.4156922030482213
-0.4717586035312564	-0.4297228742387406
-0.4716975683750064	-0.4414723074419967
-0.4716365332187564	-0.450878452362429
-0.4715754980625064	-0.45789155020768463
-0.4715144629062564	-0.4624743921793731
-0.4714534277500064	-0.46460259312566016
-0.4713923925937564	-0.4642646731339585
-0.4713313574375064	-0.4614621232562474
-0.4712703222812564	-0.45620942216088184
-0.4712092871250064	-0.44853396415774377
-0.4711482519687564	-0.4384759081941117
-0.4710872168125064	-0.4260879775617728
-0.4710261816562564	-0.41143520389543947
-0.4709651465000064	-0.39459455477566546
-0.4709041113437564	-0.375654570604835
-0.4708430761875064	-0.35471491662627447
-0.4707820410312564	-0.33188575625304395
-0.4707210058750064	-0.3072873448223177
-0.4706599707187564	-0.2810492842835937
-0.4705989355625064	-0.25330983917987226
-0.4705379004062564	-0.22421527258180368
-0.4704768652500064	-0.1939190777552226
-0.4704158300937564	-0.1625811741650497
-0.4703547949375064	-0.13036686496998495
-0.4702937597812564	-0.09744638799319565
-0.4702327246250064	-0.06399372034294991
-0.4701716894687564	-0.030185543054053646
-0.4701106543125064	0.0037992950673355706
-0.4700496191562564	0.037780966029430055
-0.4699885840000064	0.07157966827974918
-0.4699275488437564	0.10501645027899777
-0.4698665136875064	0.13791407295320326
-0.4698054785312564	0.17009821179911605
-0.4697444433750064	0.20139815651590712
-0.4696834082187564	0.23164773264513175
