Time	Frequency
-0.5000138280937563	-0.08427211342980573
-0.4999527929375063	-0.05919695184742098
-0.4998917577812563	-0.03390823627969225
-0.4998307226250063	-0.008500206911726841
-0.4997696874687563	0.016932406400958302
-0.4997086523125063	0.04229466768240192
-0.4996476171562563	0.06749204802123712
-0.4995865820000063	0.09243044717389022
-0.4995255468437563	0.1170167996967172
-0.4994645116875063	0.14115936254840647
-0.4994034765312563	0.16476795490946328
-0.4993424413750063	0.187754480529477
-0.4992814062187563	0.21003309074494575
-0.4992203710625063	0.23152063622637778
-0.4991593359062563	0.2521368967275636
-0.4990983007500063	0.2718049082635417
-0.4990372655937563	0.2904513407392526
-0.4989762304375063	0.30800658738417
-0.4989151952812563	0.3244051885684439
-0.4988541601250063	0.3395861179967149
-0.4987931249687563	0.353492771567153
-0.4987320898125063	0.36607343564272127
-0.4986710546562563	0.37728142555470784
-0.4986100195000063	0.38707511370725184
-0.4985489843437563	0.3954182983976209
-0.4984879491875063	0.4022802104420418
-0.4984269140312563	0.40763565996213824
-0.4983658788750063	0.4114651647604433
-0.4983048437187563	0.41375497094340313
-0.4982438085625063	0.41449717277958054
-0.4981827734062563	0.4136896824257681
-0.4981217382500063	0.4113362726300278
-0.4980607030937563	0.4074465781224842
-0.4979996679375063	0.4020360094732443
-0.4979386327812563	0.3951257529650808
-0.4978775976250063	0.3867426668770914
-0.4978165624687563	0.37691916230321887
-0.4977555273125063	0.3656931254687084
-0.4976944921562563	0.3531077533255842
-0.4976334570000063	0.3392113660162492
-0.4975724218437563	0.3240572703391875
-0.4975113866875063	0.3077035677454179
-0.4974503515312563	0.2902128302362813
-0.4973893163750063	0.27165200549355745
-0.4973282812187563	0.2520921321865196
-0.4972672460625063	0.23160792187025667
-0.4972062109062563	0.210277698949011
-0.4971451757500063	0.18818300515848524
-0.4970841405937563	0.16540819231175305
-0.4970231054375063	0.14204028246879802
-0.4969620702812563	0.11816857053623936
-0.4969010351250063	0.09388416972149881
-0.4968399999687563	0.06927984661141312
-0.4967789648125063	0.044449608714276126
-0.4967179296562563	0.0194882352654707
-0.4966568945000063	-0.005508911802328899
-0.4965958593437563	-0.030446328179914564
-0.4965348241875063	-0.055228807775370474
-0.4964737890312563	-0.07976162199034359
-0.4964127538750063	-0.10395102586789148
-0.4963517187187563	-0.12770465767339392
-0.4962906835625063	-0.15093161491196053
-0.4962296484062563	-0.17354320034791587
-0.4961686132500063	-0.19545293945564252
-0.4961075780937563	-0.21657696188969922
-0.4960465429375063	-0.23683459271702748
-0.4959855077812563	-0.2561482095670495
-0.4959244726250063	-0.2744439250137482
-0.4958634374687563	-0.29165170885958025
-0.4958024023125063	-0.3077056156941883
-0.4957413671562563	-0.32254414390646813
-0.4956803320000063	-0.33611038809095245
-0.4956192968437563	-0.34835233765759316
-0.4955582616875063	-0.3592229644909746
-0.4954972265312563	-0.3686805129247661
-0.4954361913750063	-0.3766886260136468
-0.4953751562187563	-0.38321643233350067
-0.4953141210625063	-0.38823874651606544
-0.4952530859062563	-0.3917361399128393
-0.4951920507500063	-0.39369497503003603
-0.4951310155937563	-0.3941075154304033
-0.4950699804375063	-0.3929719479408991
-0.4950089452812563	-0.39029236167333214
-0.4949479101250063	-0.3860787580332318
-0.4948868749687563	-0.38034702620174365
-0.4948258398125063	-0.3731188582624372
-0.4947648046562563	-0.3644216828462663
-0.4947037695000063	-0.35428857207351006
-0.4946427343437563	-0.3427580979472264
-0.4945816991875063	-0.3298742067031665
-0.4945206640312563	-0.31568603945172846
-0.4944596288750063	-0.30024775847995344
-0.4943985937187563	-0.28361833185640783
-0.4943375585625063	-0.26586132550382796
-0.4942765234062563	-0.247044660052842
-0.4942154882500063	-0.22724030226337838
-0.4941544530937563	-0.20652412194112993
-0.4940934179375063	-0.18497544940679916
-0.4940323827812563	-0.16267684349276124
-0.4939713476250063	-0.1397138667601198
-0.4939103124687563	-0.11617456132214155
-0.4938492773125063	-0.09214929688418544
-0.4937882421562563	-0.06773035209032667
-0.4937272070000063	-0.043011527161287005
-0.4936661718437563	-0.018087864447369623
-0.4936051366875063	0.006944731696589084
-0.4935441015312563	0.031989955883778884
-0.4934830663750063	0.05695133945845073
-0.4934220312187563	0.08173262827669461
-0.4933609960625063	0.10623833195089619
-0.4932999609062563	0.13037381723201827
-0.4932389257500063	0.1540458472550434
-0.4931778905937563	0.17716296157633551
-0.4931168554375063	0.19963565160318977
-0.4930558202812563	0.22137688727126847
-0.4929947851250063	0.24230238498640733
-0.4929337499687563	0.2623308733833881
-0.4928727148125063	0.28138447958987634
-0.4928116796562563	0.2993890299358751
-0.4927506445000063	0.31627427939248665
-0.4926896093437563	0.33197421820199263
-0.4926285741875063	0.34642734119103064
-0.4925675390312563	0.3595768501007502
-0.4925065038750063	0.37137091472058453
-0.4924454687187563	0.38176280280166597
-0.4923844335625063	0.3907111554711359
-0.4923233984062563	0.3981801135517431
-0.4922623632500063	0.4041393669231458
-0.4922013280937563	0.40856444353063864
-0.4921402929375063	0.41143669272308525
-0.4920792577812563	0.41274333253233036
-0.4920182226250063	0.41247762638665286
-0.4919571874687563	0.41063880955491305
-0.4918961523125063	0.40723210840996943
-0.4918351171562563	0.40226877998558563
-0.4917740820000063	0.3957660098906846
-0.4917130468437563	0.38774688462860435
-0.4916520116875063	0.378240302052525
-0.4915909765312563	0.3672808521079511
-0.4915299413750063	0.3549087116181549
-0.4914689062187563	0.34116946622605393
-0.4914078710625063	0.32611395582735464
-0.4913468359062563	0.3097981017637557
-0.4912858007500063	0.2922826378527696
-0.4912247655937563	0.2736329517038447
-0.4911637304375063	0.253918808304551
-0.4911026952812563	0.23321404531567647
-0.4910416601250063	0.2115963713226539
-0.4909806249687563	0.1891470148783631
-0.4909195898125063	0.1659504364366789
-0.4908585546562563	0.14209399163714578
-0.4907975195000063	0.11766764247405907
-0.4907364843437563	0.09276354294144765
-0.4906754491875063	0.06747576046715512
-0.4906144140312563	0.04189988026090255
-0.4905533788750063	0.016132611484608244
-0.4904923437187563	-0.009728446071399319
-0.4904313085625063	-0.0355854201490476
-0.4903702734062563	-0.061340282371161216
-0.4903092382500063	-0.08689534248901094
-0.4902482030937563	-0.11215371382614271
-0.4901871679375063	-0.1370194428944338
-0.4901261327812563	-0.16139811180173172
-0.4900650976250063	-0.18519711230398253
-0.4900040624687563	-0.20832593640493333
-0.4899430273125063	-0.23069659974165121
-0.4898819921562563	-0.2522240215646371
-0.4898209570000063	-0.2728262183609836
-0.4897599218437563	-0.29242470806961707
-0.4896988866875063	-0.3109448442844266
-0.4896378515312563	-0.3283160023761338
-0.4895768163750063	-0.34447193151147393
-0.4895157812187563	-0.3593509681769456
-0.4894547460625063	-0.37289633275087286
-0.4893937109062563	-0.3850562463253975
-0.4893326757500063	-0.39578422936023155
-0.4892716405937563	-0.40503927002025825
-0.4892106054375063	-0.41278588018868567
-0.4891495702812563	-0.41899439399193217
-0.4890885351250063	-0.42364097252828314
-0.4890274999687563	-0.4267077022695581
-0.4889664648125063	-0.42818274002254925
-0.4889054296562563	-0.42806028380865113
-0.4888443945000063	-0.4263406266814932
-0.4887833593437563	-0.4230301773159706
-0.4887223241875063	-0.4181414076933232
-0.4886612890312563	-0.4116928168701314
-0.4886002538750063	-0.40370888310015945
-0.4885392187187563	-0.39421994411367384
-0.4884781835625063	-0.38326208544146434
-0.4884171484062563	-0.3708770462366391
-0.4883561132500063	-0.3571120002110364
-0.4882950780937563	-0.3420194097771182
-0.4882340429375063	-0.3256568523644417
-0.4881730077812563	-0.3080867406532734
-0.4881119726250063	-0.28937613139240886
-0.4880509374687563	-0.2695964596878363
-0.4879899023125063	-0.2488232601101179
-0.4879288671562563	-0.22713589794582537
-0.4878678320000063	-0.20461721692567306
-0.4878067968437563	-0.18135327049171981
-0.4877457616875063	-0.15743303346756138
-0.4876847265312563	-0.13294791174512807
-0.4876236913750063	-0.10799152490966527
-0.4875626562187563	-0.08265939423156368
-0.4875016210625063	-0.05704834412472113
-0.4874405859062563	-0.03125637555905335
-0.4873795507500063	-0.00538220582757926
-0.4873185155937563	0.020475202514080384
-0.4872574804375063	0.04621686084333035
-0.4871964452812563	0.07174426061313131
-0.4871354101250063	0.09695969782371039
-0.4870743749687563	0.1217666467788171
-0.4870133398125063	0.14607015965970618
-0.4869523046562563	0.16977721376904958
-0.4868912695000063	0.19279704315856364
-0.4868302343437563	0.21504155910579625
-0.4867691991875063	0.23642563016532014
-0.4867081640312563	0.2568674155823689
-0.4866471288750063	0.2762887223280286
-0.4865860937187563	0.2946152394240821
-0.4865250585625063	0.31177692562418924
-0.4864640234062563	0.3277081573996841
-0.4864029882500063	0.3423480690374644
-0.4863419530937563	0.35564080823030525
-0.4862809179375063	0.36753562982697796
-0.4862198827812563	0.37798724398959216
-0.4861588476250063	0.3869559000023392
-0.4860978124687563	0.39440753215191937
-0.4860367773125063	0.4003139890188034
-0.4859757421562563	0.40465302452746793
-0.4859147070000063	0.4074084588641091
-0.4858536718437563	0.408570246956516
-0.4857926366875063	0.4081344601518473
-0.4857316015312563	0.4061033719154805
-0.4856705663750063	0.40248540587707476
-0.4856095312187563	0.39729512618025825
-0.4855484960625063	0.3905531735530101
-0.4854874609062563	0.3822861946654899
-0.4854264257500063	0.3725267401214773
-0.4853653905937563	0.36131313398131826
-0.4853043554375063	0.3486893433502201
-0.4852433202812563	0.33470478725935415
-0.4851822851250063	0.31941417635918284
-0.4851212499687563	0.30287727086973115
-0.4850602148125063	0.2851586898997323
-0.4849991796562563	0.26632762391318593
-0.4849381445000063	0.24645759323440317
-0.4848771093437563	0.22562617832470694
-0.4848160741875063	0.20391466227942495
-0.4847550390312563	0.1814078012244942
-0.4846940038750063	0.158193428354871
-0.4846329687187563	0.13436216293085612
-0.4845719335625063	0.11000702228080556
-0.4845108984062563	0.08522306719265169
-0.4844498632500063	0.06010711626488056
-0.4843888280937563	0.03475720376982851
-0.4843277929375063	0.009272378156416843
-0.4842667577812563	-0.016247777403457935
-0.4842057226250063	-0.04170353492954639
-0.4841446874687563	-0.06699535149489091
-0.4840836523125063	-0.09202432583034648
-0.4840226171562563	-0.11669246793922891
-0.4839615820000063	-0.14090328746284372
-0.4839005468437563	-0.16456190097760548
-0.4838395116875063	-0.18757556100097922
-0.4837784765312563	-0.20985412490376779
-0.4837174413750063	-0.23131006354711656
-0.4836564062187563	-0.25185912863796417
-0.4835953710625063	-0.2714206118986144
-0.4835343359062563	-0.28991745151584764
-0.4834733007500063	-0.30727682992839617
-0.4834122655937563	-0.32343028311220207
-0.4833512304375063	-0.33831393478041516
-0.4832901952812563	-0.35186893598750435
-0.4832291601250063	-0.3640414671982281
-0.4831681249687563	-0.37478311820445104
-0.4831070898125063	-0.3840510206682968
-0.4830460546562563	-0.3918079597489905
-0.4829850195000063	-0.39802265538621795
-0.4829239843437563	-0.402669753413383
-0.4828629491875063	-0.4057299936921182
-0.4828019140312563	-0.40719029605073154
-0.4827408788750063	-0.4070437730969584
-0.4826798437187563	-0.40528979756635203
-0.4826188085625063	-0.4019339841074646
-0.4825577734062563	-0.3969881855600798
-0.4824967382500063	-0.3904704481091624
-0.4824357030937563	-0.3824049329072739
-0.4823746679375063	-0.3728218418340422
-0.4823136327812563	-0.36175729965971204
-0.4822525976250063	-0.3492532056040839
-0.4821915624687563	-0.3353570879155985
-0.4821305273125063	-0.3201219231490823
-0.4820694921562563	-0.3036059149465563
-0.4820084570000063	-0.2858722996275123
-0.4819474218437563	-0.2669890731129378
-0.4818863866875063	-0.2470287663931414
-0.4818253515312563	-0.22606812277660895
-0.4817643163750063	-0.20418782533664404
-0.4817032812187563	-0.18147223101082388
-0.4816422460625063	-0.1580089243767661
-0.4815812109062563	-0.13388850528241433
-0.4815201757500063	-0.10920420935230567
-0.4814591405937563	-0.08405145474928497
-0.4813981054375063	-0.05852760909965699
-0.4813370702812563	-0.03273153363961407
-0.4812760351250063	-0.00676318209280229
-0.4812149999687563	0.019276697034115914
-0.4811539648125063	0.04528706088455584
-0.4810929296562563	0.07116688224955398
-0.4810318945000063	0.09681556323742725
-0.4809708593437563	0.12213338959132124
-0.4809098241875063	0.147021770480227
-0.4808487890312563	0.17138378798125314
-0.4807877538750063	0.19512452765277896
-0.4807267187187563	0.2181512900715747
-0.4806656835625063	0.24037421610079118
-0.4806046484062563	0.2617064877979717
-0.4805436132500063	0.2820645971938183
-0.4804825780937563	0.3013688616340703
-0.4804215429375063	0.31954359003918403
-0.4803605077812563	0.33651742426699044
-0.4802994726250063	0.35222362042969707
-0.4802384374687563	0.36660033625435823
-0.4801774023125063	0.3795908142387863
-0.4801163671562563	0.3911436354401869
-0.4800553320000063	0.40121298966235197
-0.4799942968437563	0.4097587028044218
-0.4799332616875063	0.41674654112762777
-0.4798722265312563	0.4221483105477224
-0.4798111913750063	0.42594189084939166
-0.4797501562187563	0.4281114388879999
-0.4796891210625063	0.4286473956389054
-0.4796280859062563	0.4275465066801315
-0.4795670507500063	0.4248118910647789
-0.4795060155937563	0.42045300271432967
-0.4794449804375063	0.41448559347135117
-0.4793839452812563	0.4069316704440147
-0.4793229101250063	0.3978194095021339
-0.4792618749687563	0.38718304207965976
-0.4792008398125063	0.3750627330747086
-0.4791398046562563	0.3615044273718316
-0.4790787695000063	0.34655967232780716
-0.4790177343437563	0.33028541431012015
-0.4789566991875063	0.31274380761104703
-0.4788956640312563	0.2940019177446921
-0.4788346288750063	0.2741315351475982
-0.4787735937187563	0.25320888046349177
-0.4787125585625063	0.23131419046787585
-0.4786515234062563	0.2085316596999459
-0.4785904882500063	0.18494888462251552
-0.4785294530937563	0.1606565486047444
-0.4784684179375063	0.1357482787362999
-0.4784073827812563	0.1103200270486404
-0.4783463476250063	0.08446977293129848
-0.4782853124687563	0.0582973019145811
-0.4782242773125063	0.031903616864783935
-0.4781632421562563	0.005390534430031799
-0.4781022070000063	-0.02113942826535247
-0.4780411718437563	-0.047583824906710405
-0.4779801366875063	-0.0738404438297308
-0.4779191015312563	-0.0998077111335512
-0.4778580663750063	-0.125385261001209
-0.4777970312187563	-0.15047406495069618
-0.4777359960625063	-0.17497711283676276
-0.4776749609062563	-0.19879950527716275
-0.4776139257500063	-0.22184901911253713
-0.4775528905937563	-0.2440364597936825
-0.4774918554375063	-0.2652758152754794
-0.4774308202812563	-0.2854849058178684
-0.4773697851250063	-0.3045854161766632
-0.4773087499687563	-0.32250333577609497
-0.4772477148125063	-0.3391693239190289
-0.4771866796562563	-0.35451876010763395
-0.4771256445000063	-0.36849223869833986
-0.4770646093437563	-0.38103566780193326
-0.4770035741875063	-0.392100466611764
-0.4769425390312563	-0.40164386620928605
-0.4768815038750063	-0.4096289609639305
-0.4768204687187563	-0.4160249566931151
-0.4767594335625063	-0.4208072022089569
-0.4766983984062563	-0.42395734316000044
-0.4766373632500063	-0.42546341233402657
-0.4765763280937563	-0.42531980607964837
-0.4765152929375063	-0.4235273812469135
-0.4764542577812563	-0.42009342238448444
-0.4763932226250063	-0.4150316175299838
-0.4763321874687563	-0.40836200875869416
-0.4762711523125063	-0.4001109162393557
-0.4762101171562563	-0.3903108497200213
-0.4761490820000063	-0.3790003631297462
-0.4760880468437563	-0.36622390991538234
-0.4760270116875063	-0.35203171053515425
-0.4759659765312563	-0.3364794823616322
-0.4759049413750063	-0.3196282948898282
-0.4758439062187563	-0.3015443206335884
-0.4757828710625063	-0.28229851058138455
-0.4757218359062563	-0.2619664297428598
-0.4756608007500063	-0.2406278835152915
-0.4755997655937563	-0.21836661234442156
-0.4755387304375063	-0.19526999475575682
-0.4754776952812563	-0.17142871051942832
-0.4754166601250063	-0.14693635388037246
-0.4753556249687563	-0.1218890778016882
-0.4752945898125063	-0.09638522121166675
-0.4752335546562563	-0.07052497596044484
-0.4751725195000063	-0.0444099168739197
-0.4751114843437563	-0.018142571995768714
-0.4750504491875063	0.008173781799312023
-0.4749894140312563	0.03443575372190066
-0.4749283788750063	0.060540148131577605
-0.4748673437187563	0.08638430225566589
-0.4748063085625063	0.11186660363590442
-0.4747452734062563	0.1368868488716418
-0.4746842382500063	0.16134660699818953
-0.4746232030937563	0.1851495959647973
-0.4745621679375063	0.20820216609554743
-0.4745011327812563	0.23041354160848607
-0.4744400976250063	0.2516962521217852
-0.4743790624687563	0.27196644661447067
-0.4743180273125063	0.29114422937787265
-0.4742569921562563	0.3091540231420301
-0.4741959570000063	0.3259247514274263
-0.4741349218437563	0.3413902628035815
-0.4740738866875063	0.35548947723185914
-0.4740128515312563	0.36816668803751895
-0.4739518163750063	0.37937179734476306
-0.4738907812187563	0.38906041854754897
-0.4738297460625063	0.39719419456653715
-0.4737687109062563	0.4037408344859968
-0.4737076757500063	0.4086742911392833
-0.4736466405937563	0.4119748834860262
-0.4735856054375063	0.4136293240129252
-0.4735245702812563	0.4136308329294979
-0.4734635351250063	0.41197912230551703
-0.4734024999687563	0.4086804221650813
-0.4733414648125063	0.40374745618485014
-0.4732804296562563	0.3971993939460191
-0.4732193945000063	0.38906177052389684
-0.4731583593437563	0.37936640028839114
-0.4730973241875063	0.36815125692084477
-0.4730362890312563	0.3554603044821992
-0.4729752538750063	0.3413433522470994
-0.4729142187187563	0.32585586423673657
-0.4728531835625063	0.3090587100745611
-0.4727921484062563	0.2910179446507666
-0.4727311132500063	0.2718045999678445
-0.4726700780937563	0.25149431081528095
-0.4726090429375063	0.23016708974603892
-0.4725480077812563	0.20790701851035054
-0.4724869726250063	0.1848018654639753
-0.4724259374687563	0.1609427913242606
-0.4723649023125063	0.136423963789654
-0.4723038671562563	0.11134218952191588
-0.4722428320000063	0.08579659418107291
-0.4721817968437563	0.0598880993980223
-0.4721207616875063	0.03371913785008192
-0.4720597265312563	0.0073933099164733805
-0.4719986913750063	-0.018985283717261887
-0.4719376562187563	-0.04531214750418198
-0.4718766210625063	-0.07148296271882973
-0.4718155859062563	-0.09739403122097448
-0.4717545507500063	-0.12294256303673946
-0.4716935155937563	-0.1480271681278264
-0.4716324804375063	-0.1725482301961738
-0.4715714452812563	-0.1964083521591686
-0.4715104101250063	-0.21951258374256566
-0.4714493749687563	-0.2417690150702753
-0.4713883398125063	-0.2630890294361023
-0.4713273046562563	-0.2833875407013764
-0.4712662695000063	-0.302583588429875
-0.4712052343437563	-0.3206004737386238
-0.4711441991875063	-0.3373660458728166
-0.4710831640312563	-0.35281316061515755
-0.4710221288750063	-0.366879760941908
-0.4709610937187563	-0.3795092392286273
-0.4709000585625063	-0.3906506385607666
-0.4708390234062563	-0.40025879784567747
-0.4707779882500063	-0.4082946651398871
-0.4707169530937563	-0.41472529859581786
-0.4706559179375063	-0.4195241068009275
-0.4705948827812563	-0.42267094013351747
-0.4705338476250063	-0.42415213049302153
-0.4704728124687563	-0.4239605990167139
-0.4704117773125063	-0.4220958542409131
-0.4703507421562563	-0.41856402500614853
-0.4702897070000063	-0.4133778129528986
-0.4702286718437563	-0.40655646163865805
-0.4701676366875063	-0.3981256945828845
-0.4701066015312563	-0.38811758552878717
-0.4700455663750063	-0.376570464787936
-0.4699845312187563	-0.36352877462347516
-0.4699234960625063	-0.3490428545146736
-0.4698624609062563	-0.33316879814520467
-0.4698014257500063	-0.3159682192900494
-0.4697403905937563	-0.2975079797267883
-0.4696793554375063	-0.27785996663725143
