Time	Frequency
-0.5000035763125013	1.536461120210743e-24
-0.49994254115625125	1.5006425221944548e-24
-0.49988150600000125	1.460534952276659e-24
-0.49982047084375125	1.4162536836712551e-24
-0.49975943568750125	1.3679262064309606e-24
-0.49969840053125125	1.3156918254690192e-24
-0.49963736537500125	1.2597013427152276e-24
-0.49957633021875125	1.200116509593221e-24
-0.49951529506250125	1.1371096698967774e-24
-0.49945425990625125	1.070863227048073e-24
-0.49939322475000125	1.0015689730029187e-24
-0.49933218959375125	9.294278005596821e-25
-0.49927115443750125	8.54648985083393e-25
-0.49921011928125125	7.774493597261422e-25
-0.49914908412500125	6.980531304600594e-25
-0.49908804896875125	6.166909373625498e-25
-0.49902701381250125	5.33599013970787e-25
-0.49896597865625125	4.49019041762479e-25
-0.49890494350000125	3.631969294943709e-25
-0.49884390834375125	2.763821938038169e-25
-0.49878287318750125	1.8882757986306748e-25
-0.49872183803125125	1.0078785915394495e-25
-0.49866080287500125	1.2519303289353953e-26
-0.49859976771875125	-7.57209397173476e-26
-0.49853873256250125	-1.6367593439033456e-25
-0.49847769740625125	-2.5108939404582897e-25
-0.49841666225000125	-3.3770653322168667e-25
-0.49835562709375125	-4.232749898623167e-25
-0.49829459193750125	-5.0754518061144815e-25
-0.49823355678125125	-5.902714927510833e-25
-0.49817252162500125	-6.712126633626807e-25
-0.49811148646875125	-7.501325575501014e-25
-0.49805045131250125	-8.268010767208578e-25
-0.49798941615625125	-9.009944066560904e-25
-0.49792838100000125	-9.724962819749458e-25
-0.49786734584375125	-1.0410979794059809e-24
-0.49780631068750125	-1.1065992662216852e-24
-0.49774527553125125	-1.168809292893322e-24
-0.49768424037500125	-1.2275462928209688e-24
-0.49762320521875125	-1.2826390210569417e-24
-0.49756217006250125	-1.3339269120350253e-24
-0.49750113490625125	-1.3812602089170987e-24
-0.49744009975000125	-1.424501057732208e-24
-0.49737906459375125	-1.463523475578493e-24
-0.49731802943750125	-1.4982137634887678e-24
-0.49725699428125125	-1.5284710256340445e-24
-0.49719595912500125	-1.5542073379680505e-24
-0.49713492396875125	-1.5753480458330844e-24
-0.49707388881250125	-1.5918319313687877e-24
-0.49701285365625125	-1.6036115464995928e-24
-0.49695181850000125	-1.610653199406422e-24
-0.49689078334375125	-1.6129370986213678e-24
-0.49682974818750125	-1.6104575453006277e-24
-0.49676871303125125	-1.6032227347246511e-24
-0.49670767787500125	-1.591254929082521e-24
-0.49664664271875125	-1.5745903053271732e-24
-0.49658560756250125	-1.5532788556467583e-24
-0.49652457240625125	-1.527384299225582e-24
-0.49646353725000125	-1.4969838190977532e-24
-0.49640250209375125	-1.4621679318857699e-24
-0.49634146693750125	-1.4230401487926477e-24
-0.49628043178125125	-1.3797167201081647e-24
-0.49621939662500125	-1.3323262984615634e-24
-0.49615836146875125	-1.2810095273730154e-24
-0.49609732631250125	-1.2259186976589284e-24
-0.49603629115625125	-1.1672172028682897e-24
-0.49597525600000125	-1.1050792056788574e-24
-0.49591422084375125	-1.039688989556304e-24
-0.49585318568750125	-9.712404686968626e-25
-0.49579215053125125	-8.999367134362097e-25
-0.49573111537500125	-8.259891387373409e-25
-0.49567008021875125	-7.496172261730059e-25
-0.49560904506250125	-6.710474015029977e-25
-0.49554800990625125	-5.905128419788301e-25
-0.49548697475000125	-5.0825265257675515e-25
-0.49542593959375125	-4.245107392083219e-25
-0.49536490443750125	-3.3953595918465327e-25
-0.49530386928125125	-2.535804962710386e-25
-0.49524283412500125	-1.6689962875763138e-25
-0.49518179896875125	-7.975099827222428e-26
-0.49512076381250125	7.606623147676464e-27
-0.49505972865625125	9.491329836427621e-26
-0.49499869350000125	1.8190963616358908e-25
-0.49493765834375125	2.6833682903312774e-25
-0.49487662318750125	3.539374788510835e-25
-0.49481558803125125	4.3845707996261215e-25
-0.49475455287500125	5.216436866339041e-25
-0.49469351771875125	6.0324948827712385e-25
-0.49463248256250125	6.830313210751073e-25
-0.49457144740625125	7.607510579692953e-25
-0.49451041225000125	8.361768640954203e-25
-0.49444937709375125	9.090834164474188e-25
-0.49438834193750125	9.792529436684431e-25
-0.49432730678125125	1.046475489770782e-24
-0.49426627162500125	1.1105498366783318e-24
-0.49420523646875125	1.17128415222544e-24
-0.49414420131250125	1.2284960683719728e-24
-0.49408316615625125	1.2820139285314178e-24
-0.49402213100000125	1.3316767420876907e-24
-0.49396109584375125	1.3773349280891637e-24
-0.49390006068750125	1.4188507212502171e-24
-0.49383902553125125	1.4560984677835614e-24
-0.49377799037500125	1.4889652911670246e-24
-0.49371695521875125	1.51735107134193e-24
-0.49365592006250125	1.5411689355289314e-24
-0.49359488490625125	1.560345624183784e-24
-0.49353384975000125	1.5748215320860427e-24
-0.49347281459375125	1.5845508472235386e-24
-0.49341177943750125	1.5895020160777776e-24
-0.49335074428125125	1.589657474483451e-24
-0.49328970912500125	1.5850138674713586e-24
-0.49322867396875125	1.5755821718677657e-24
-0.49316763881250125	1.561387450189765e-24
-0.49310660365625125	1.542468943091413e-24
-0.49304556850000125	1.5188799181811072e-24
-0.49298453334375125	1.4906875052380735e-24
-0.49292349818750125	1.4579725086298118e-24
-0.49286246303125125	1.4208292085145708e-24
-0.49280142787500125	1.3793650036147595e-24
-0.49274039271875125	1.3337002541954534e-24
-0.49267935756250125	1.283967751089034e-24
-0.49261832240625125	1.2303124277796497e-24
-0.49255728725000125	1.1728910377854148e-24
-0.49249625209375125	1.111871360180041e-24
-0.49243521693750125	1.047432180288815e-24
-0.49237418178125125	9.797624182898875e-25
-0.49231314662500125	9.09060520682979e-25
-0.49225211146875125	8.355344020163613e-25
-0.49219107631250125	7.59400109331272e-25
-0.49213004115625125	6.808816630841883e-25
-0.49206900600000125	6.00210457340024e-25
-0.49200797084375125	5.1762410628297e-25
-0.49194693568750125	4.333661873611671e-25
-0.49188590053125125	3.4768547758654327e-25
-0.49182486537500125	2.6083493491064867e-25
-0.49176383021875125	1.7307110086158845e-25
-0.49170279506250125	8.46537316137943e-26
-0.49164175990625125	-4.15577597443227e-27
-0.49158072475000125	-9.309454141134372e-26
-0.49151968959375125	-1.818989250735278e-25
-0.49145865443750125	-2.703058918858032e-25
-0.49139761928125125	-3.580531596545106e-25
-0.49133658412500125	-4.448804119726947e-25
-0.49127554896875125	-5.305297987594078e-25
-0.49121451381250125	-6.147468441412818e-25
-0.49115347865625125	-6.972812017133346e-25
-0.49109244350000125	-7.778872630890353e-25
-0.49103140834375125	-8.563251750030283e-25
-0.49097037318750125	-9.323611167415998e-25
-0.49090933803125125	-1.0057684133415879e-24
-0.49084830287500125	-1.0763281338731196e-24
-0.49078726771875125	-1.1438293269725106e-24
-0.49072623256250125	-1.2080703271872339e-24
-0.49066519740625125	-1.2688588987792412e-24
-0.49060416225000125	-1.3260127434190051e-24
-0.49054312709375125	-1.3793605151705838e-24
-0.49048209193750125	-1.4287418798672358e-24
-0.49042105678125125	-1.4740081389173323e-24
-0.49036002162500125	-1.515022806620959e-24
-0.49029898646875125	-1.5516618586069357e-24
-0.49023795131250125	-1.5838141290025115e-24
-0.49017691615625125	-1.611381749728135e-24
-0.49011588100000125	-1.6342803563375834e-24
-0.49005484584375125	-1.6524393361263712e-24
-0.48999381068750125	-1.6658021134736615e-24
-0.48993277553125125	-1.6743263078610423e-24
-0.48987174037500125	-1.677983780392188e-24
-0.48981070521875125	-1.6767608607420052e-24
-0.48974967006250125	-1.6706583185846772e-24
-0.48968863490625125	-1.659691333544016e-24
-0.48962759975000125	-1.6438895647039145e-24
-0.48956656459375125	-1.623296967142246e-24
-0.48950552943750125	-1.5979717383721015e-24
-0.48944449428125125	-1.5679860937101051e-24
-0.48938345912500125	-1.5334261377766796e-24
-0.48932242396875125	-1.4943915223230466e-24
-0.48926138881250125	-1.4509952232535725e-24
-0.48920035365625125	-1.4033632487109694e-24
-0.48913931850000125	-1.3516341011407381e-24
-0.48907828334375125	-1.2959585737317862e-24
-0.48901724818750125	-1.2364992524614535e-24
-0.48895621303125125	-1.1734298902628891e-24
-0.48889517787500125	-1.106935132886516e-24
-0.48883414271875125	-1.0372098617126902e-24
-0.48877310756250125	-9.644584211004445e-25
-0.48871207240625125	-8.88894529117113e-25
-0.48865103725000125	-8.107401464152864e-25
-0.48859000209375125	-7.302248717995752e-25
-0.48852896693750125	-6.475857747772074e-25
-0.48846793178125125	-5.630659809023996e-25
-0.48840689662500125	-4.7691435985088485e-25
-0.48834586146875125	-3.893848772034689e-25
-0.48828482631250125	-3.0073545970586093e-25
-0.48822379115625125	-2.1122766007061483e-25
-0.48816275600000125	-1.2112553679514645e-25
-0.48810172084375125	-3.069496950672786e-26
-0.48804068568750125	5.979681048742533e-26
-0.48797965053125125	1.5008278706576878e-25
-0.48791861537500125	2.398959731291754e-25
-0.48785758021875125	3.2897083553856213e-25
-0.48779654506250125	4.170443552960589e-25
-0.48773550990625125	5.038556441461843e-25
-0.48767447475000125	5.891481155899455e-25
-0.48761343959375125	6.726694268892916e-25
-0.48755240443750125	7.541722284576789e-25
-0.48749136928125125	8.334153276516111e-25
-0.48743033412500125	9.101640951136385e-25
-0.48736929896875125	9.841913236093798e-25
-0.48730826381250125	1.055277515692988e-24
-0.48724722865625125	1.1232123542789624e-24
-0.48718619350000125	1.1877944865475138e-24
-0.48712515834375125	1.248832394233242e-24
-0.48706412318750125	1.3061455211810183e-24
-0.48700308803125125	1.3595638372145126e-24
-0.48694205287500125	1.4089290896960264e-24
-0.48688101771875125	1.4540950832032326e-24
-0.48681998256250125	1.494927992568094e-24
-0.48675894740625125	1.531306888795039e-24
-0.48669791225000125	1.5631240632760571e-24
-0.48663687709375125	1.590285477535058e-24
-0.48657584193750125	1.6127107189472912e-24
-0.48651480678125125	1.6303337005942171e-24
-0.48645377162500125	1.6431025170432258e-24
-0.48639273646875125	1.6509796740148423e-24
-0.48633170131250125	1.6539424056362676e-24
-0.48627066615625125	1.6519824335438206e-24
-0.48620963100000125	1.6451062553216003e-24
-0.48614859584375125	1.6333350357156987e-24
-0.48608756068750125	1.616704493075655e-24
-0.48602652553125125	1.5952649091867175e-24
-0.48596549037500125	1.5690809342509842e-24
-0.48590445521875125	1.5382313384870579e-24
-0.48584342006250125	1.502808924360069e-24
-0.48578238490625125	1.4629201152408212e-24
-0.48572134975000125	1.418684734676172e-24
-0.48566031459375125	1.3702355944455573e-24
-0.48559927943750125	1.317718141936432e-24
-0.48553824428125125	1.2612900681947594e-24
-0.48547720912500125	1.2011206714496727e-24
-0.48541617396875125	1.1373906338394463e-24
-0.48535513881250125	1.0702911898824023e-24
-0.48529410365625125	1.0000237915805829e-24
-0.48523306850000125	9.267993846968364e-25
-0.48517203334375125	8.50837769791517e-25
-0.48511099818750125	7.723671819867273e-25
-0.48504996303125125	6.916230433427303e-25
-0.48498892787500125	6.088481068081761e-25
-0.48492789271875125	5.242910119841271e-25
-0.48486685756250125	4.382056106375118e-25
-0.48480582240625125	3.508509409645115e-25
-0.48474478725000125	2.624893728557703e-25
-0.48468375209375125	1.733866377422359e-25
-0.48462271693750125	8.38107154414773e-26
-0.48456168178125125	-5.968947079264407e-27
-0.48450064662500125	-9.568220206438669e-26
-0.48443961146875125	-1.8505909772665584e-25
-0.48437857631250125	-2.7383039598322954e-25
-0.48431754115625125	-3.6172897301257285e-25
-0.48425650600000125	-4.4848984035923e-25
-0.48419547084375125	-5.338515913782338e-25
-0.48413443568750125	-6.175569945544402e-25
-0.48407340053125125	-6.993533862383482e-25
-0.48401236537500125	-7.789941856121256e-25
-0.48395133021875125	-8.562389135976755e-25
-0.48389029506250125	-9.308542397336853e-25
-0.48382925990625125	-1.0026148294066668e-24
-0.48376822475000125	-1.0713036418039506e-24
-0.48370718959375125	-1.1367129359218027e-24
-0.48364615443750125	-1.1986447038448768e-24
-0.48358511928125125	-1.2569113368626908e-24
-0.48352408412500125	-1.3113361276876938e-24
-0.48346304896875125	-1.361753922080917e-24
-0.48340201381250125	-1.4080115995188314e-24
-0.48334097865625125	-1.4499682938092783e-24
-0.48327994350000125	-1.4874962486116996e-24
-0.48321890834375125	-1.5204808731198649e-24
-0.48315787318750125	-1.5488211721339033e-24
-0.48309683803125125	-1.572430167436211e-24
-0.48303580287500125	-1.5912350065161543e-24
-0.48297476771875125	-1.6051773112243417e-24
-0.48291373256250125	-1.6142132858670923e-24
-0.48285269740625125	-1.6183138941602721e-24
-0.48279166225000125	-1.6174649445863891e-24
-0.48273062709375125	-1.61166712180613e-24
-0.48266959193750125	-1.6009360283871213e-24
-0.48260855678125125	-1.5853021114264837e-24
-0.48254752162500125	-1.5648105894793247e-24
-0.48248648646875125	-1.5395213540462756e-24
-0.48242545131250125	-1.5095087051408526e-24
-0.48236441615625125	-1.4748612904494666e-24
-0.48230338100000125	-1.4356816764066439e-24
-0.48224234584375125	-1.3920861619385467e-24
-0.48218131068750125	-1.3442044024278152e-24
-0.48212027553125125	-1.2921789845929534e-24
-0.48205924037500125	-1.2361651175521095e-24
-0.48199820521875125	-1.1763299988036308e-24
-0.48193717006250125	-1.1128525122261157e-24
-0.48187613490625125	-1.045922540981906e-24
-0.48181509975000125	-9.757404941553269e-25
-0.48175406459375125	-9.025166250964039e-25
-0.48169302943750125	-8.264705446739865e-25
-0.48163199428125125	-7.478304037557636e-25
-0.48157095912500125	-6.668322174904493e-25
-0.48150992396875125	-5.837194822051336e-25
-0.48144888881250125	-4.987418704470823e-25
-0.48138785365625125	-4.1215499240819463e-25
-0.48132681850000125	-3.242194646678179e-25
-0.48126578334375125	-2.351998971336144e-25
-0.48120474818750125	-1.4536456531838834e-25
-0.48114371303125125	-5.498414805666079e-26
-0.48108267787500125	3.566880373603511e-26
-0.48102164271875125	1.2632079890019105e-25
-0.48096060756250125	2.1669819966432803e-25
-0.48089957240625125	3.065279984309639e-25
-0.48083853725000125	3.9553886564229384e-25
-0.48077750209375125	4.834615073039202e-25
-0.48071646693750125	5.70030067126161e-25
-0.48065543178125125	6.54982507531046e-25
-0.48059439662500125	7.380613067550585e-25
-0.48053336146875125	8.190148700463684e-25
-0.48047232631250125	8.975976210674105e-25
-0.48041129115625125	9.735708251375633e-25
-0.48035025600000125	1.0467039376643647e-24
-0.48028922084375125	1.1167745405471072e-24
-0.48022818568750125	1.1835691960219365e-24
-0.48016715053125125	1.2468846970384306e-24
-0.48010611537500125	1.3065277065675714e-24
-0.48004508021875125	1.3623161574819665e-24
-0.47998404506250125	1.4140795031672745e-24
-0.47992300990625125	1.4616589611400734e-24
-0.47986197475000125	1.5049086799239454e-24
-0.47980093959375125	1.5436954294820634e-24
-0.47973990443750125	1.5778995383517401e-24
-0.47967886928125125	1.6074151046870321e-24
-0.47961783412500125	1.632150163335323e-24
-0.47955679896875125	1.6520272652036869e-24
-0.47949576381250125	1.66698345191915e-24
-0.47943472865625125	1.6769706501684482e-24
-0.47937369350000125	1.681955681113869e-24
-0.47931265834375125	1.6819204443531494e-24
-0.47925162318750125	1.6768620129384376e-24
-0.47919058803125125	1.6667925134520295e-24
-0.47912955287500125	1.6517392772654746e-24
-0.47906851771875125	1.6317446329287215e-24
-0.47900748256250125	1.6068658068971977e-24
-0.47894644740625125	1.5771748619460864e-24
-0.47888541225000125	1.5427583156350657e-24
-0.47882437709375125	1.5037170370489284e-24
-0.47876334193750125	1.460165908030261e-24
-0.47870230678125125	1.4122334102861063e-24
-0.47864127162500125	1.3600613147161684e-24
-0.47858023646875125	1.303804356470666e-24
-0.47851920131250125	1.2436295114009212e-24
-0.47845816615625125	1.1797156694031901e-24
-0.47839713100000125	1.1122533606188554e-24
-0.47833609584375125	1.0414434479825897e-24
-0.47827506068750125	9.674973600288443e-25
-0.47821402553125125	8.906360348192123e-25
-0.47815299037500125	8.110890499923161e-25
-0.47809195521875125	7.290946213778504e-25
-0.47803092006250125	6.44898051701845e-25
-0.47796988490625125	5.587516724162059e-25
-0.47790884975000125	4.709137367418548e-25
-0.47784781459375125	3.816476264750204e-25
-0.47778677943750125	2.912213507421675e-25
-0.47772574428125125	1.999063968643871e-25
-0.47766470912500125	1.0797703599368496e-25
-0.47760367396875125	1.570960826342524e-26
-0.47754263881250125	-7.661831207521965e-26
-0.47748160365625125	-1.687292365068621e-25
-0.47742056850000125	-2.603457270400095e-25
-0.47735953334375125	-3.5119192501540945e-25
-0.47729849818750125	-4.409944268991136e-25
-0.47723746303125125	-5.294823487396391e-25
-0.47717642787500125	-6.163891001874569e-25
-0.47711539271875125	-7.014526490177312e-25
-0.47705435756250125	-7.8441617666882945e-25
-0.47699332240625125	-8.650295038152348e-25
-0.47693228725000125	-9.430492073666863e-25
-0.47687125209375125	-1.0182394789697276e-24
-0.47681021693750125	-1.0903734387610473e-24
-0.47674918178125125	-1.1592328255283623e-24
-0.47668814662500125	-1.2246093699015227e-24
-0.47662711146875125	-1.2863056040236432e-24
-0.47656607631250125	-1.3441345204678954e-24
-0.47650504115625125	-1.397921109962891e-24
-0.47644400600000125	-1.4475025325020603e-24
-0.47638297084375125	-1.492728343713603e-24
-0.47632193568750125	-1.5334615387334066e-24
-0.47626090053125125	-1.569578445291089e-24
-0.47619986537500125	-1.600969310135761e-24
-0.47613883021875125	-1.6275388350963436e-24
-0.47607779506250125	-1.649206055717205e-24
-0.47601675990625125	-1.6659049194219135e-24
-0.47595572475000125	-1.677584433681413e-24
-0.47589468959375125	-1.684208683083492e-24
-0.47583365443750125	-1.6857571287628024e-24
-0.47577261928125125	-1.682224577386313e-24
-0.47571158412500125	-1.6736211893141974e-24
-0.47565054896875125	-1.659972544902949e-24
-0.47558951381250125	-1.6413194883155263e-24
-0.47552847865625125	-1.6177180245216334e-24
-0.47546744350000125	-1.589239235639283e-24
-0.47540640834375125	-1.555968941431343e-24
-0.47534537318750125	-1.5180075507784933e-24
-0.47528433803125125	-1.4754697615508477e-24
-0.47522330287500125	-1.4284840848404081e-24
-0.47516226771875125	-1.377192707041528e-24
-0.47510123256250125	-1.3217507933515073e-24
-0.47504019740625125	-1.2623261667899703e-24
-0.47497916225000125	-1.1990989801703349e-24
-0.47491812709375125	-1.132260606481764e-24
-0.47485709193750125	-1.062013832707819e-24
-0.47479605678125125	-9.885716643238127e-25
-0.47473502162500125	-9.12156747236379e-25
-0.47467398646875125	-8.33001230757151e-25
-0.47461295131250125	-7.513451574119723e-25
-0.47455191615625125	-6.674366594663399e-25
-0.47449088100000125	-5.815305296076201e-25
-0.47442984584375125	-4.938877799206489e-25
-0.47436881068750125	-4.0477493273393654e-25
-0.47430777553125125	-3.144627634779363e-25
-0.47424674037500125	-2.232261145084099e-25
-0.47418570521875125	-1.3134234370919385e-25
-0.47412467006250125	-3.909132357586056e-26
-0.47406363490625125	5.324627333566659e-26
-0.47400259975000125	1.4538935772277694e-25
-0.47394156459375125	2.370569100369599e-25
-0.47388052943750125	3.2797000936027546e-25
-0.47381949428125125	4.178513044451168e-25
-0.47375845912500125	5.064266999976015e-25
-0.47369742396875125	5.9342629417179065e-25
-0.47363638881250125	6.7858431408424215e-25
-0.47357535365625125	7.616409630700221e-25
-0.47351431850000125	8.423427068949079e-25
-0.47345328334375125	9.204427754820686e-25
-0.47339224818750125	9.957027181324858e-25
-0.47333121303125125	1.0678923524356388e-24
-0.47327017787500125	1.136790734322104e-24
-0.47320914271875125	1.202187154913495e-24
-0.47314810756250125	1.2638812428451162e-24
-0.47308707240625125	1.3216839861059875e-24
-0.47302603725000125	1.3754181254436093e-24
-0.47296500209375125	1.4249187567838009e-24
-0.47290396693750125	1.470033844784905e-24
-0.47284293178125125	1.5106246684288838e-24
-0.47278189662500125	1.5465662531833604e-24
-0.47272086146875125	1.5777477548342355e-24
-0.47265982631250125	1.6040728929565313e-24
-0.47259879115625125	1.62546004045802e-24
-0.47253775600000125	1.6418427239266057e-24
-0.47247672084375125	1.6531697038998874e-24
-0.47241568568750125	1.6594050989868177e-24
-0.47235465053125125	1.660528629449831e-24
