Time	Frequency
-0.5000548363749999	-0.2612635499785842
-0.4999938012187499	-0.2807352189718769
-0.4999327660624999	-0.2990504407377414
-0.4998717309062499	-0.31613603588549494
-0.4998106957499999	-0.3319236888701289
-0.4997496605937499	-0.3463503377970127
-0.4996886254374999	-0.35935836274745936
-0.4996275902812499	-0.37089582624348616
-0.4995665551249999	-0.38091671644591896
-0.4995055199687499	-0.3893810720680518
-0.4994444848124999	-0.39625522644750183
-0.4993834496562499	-0.40151187266059496
-0.4993224144999999	-0.40513020398469074
-0.4992613793437499	-0.4070960119262208
-0.4992003441874999	-0.4074017252901852
-0.4991393090312499	-0.4060464505170199
-0.4990782738749999	-0.4030359714321642
-0.4990172387187499	-0.3983827506030001
-0.4989562035624999	-0.3921058548352787
-0.4988951684062499	-0.38423087818275337
-0.4988341332499999	-0.3747898966015197
-0.4987730980937499	-0.36382124954229794
-0.4987120629374999	-0.3513694689995952
-0.4986510277812499	-0.33748508664825944
-0.4985899926249999	-0.3222243597863549
-0.4985289574687499	-0.3056491929093034
-0.4984679223124999	-0.287826729599562
-0.4984068871562499	-0.26882919441049064
-0.4983458519999999	-0.24873358540564303
-0.4982848168437499	-0.2276212995891185
-0.4982237816874999	-0.20557792683840564
-0.4981627465312499	-0.18269279144935988
-0.4981017113749999	-0.15905865632589417
-0.4980406762187499	-0.13477133854430126
-0.4979796410624999	-0.10992933100468082
-0.4979186059062499	-0.08463340318690211
-0.4978575707499999	-0.05898616387370197
-0.4977965355937499	-0.033091719192090946
-0.4977355004374999	-0.007055190612931526
-0.4976744652812499	0.019017668290557514
-0.4976134301249999	0.04502093452519824
-0.4975523949687499	0.07084891460047173
-0.4974913598124999	0.09639653688186213
-0.4974303246562499	0.1215598969061745
-0.4973692894999999	0.14623651150589903
-0.4973082543437499	0.17032584494096142
-0.4972472191874999	0.19372973177009048
-0.4971861840312499	0.21635263877528432
-0.4971251488749999	0.23810219305558647
-0.4970641137187499	0.2588895386012654
-0.4970030785624999	0.278629571205614
-0.4969420434062499	0.29724140082030104
-0.4968810082499999	0.31464874447136565
-0.4968199730937499	0.3307800082519242
-0.4967589379374999	0.34556875279220695
-0.4966979027812499	0.35895401219490664
-0.4966368676249999	0.3708803542065254
-0.4965758324687499	0.3812982133000926
-0.4965147973124999	0.3901641578657426
-0.4964537621562499	0.3974409622208169
-0.4963927269999999	0.40309775274261195
-0.4963316918437499	0.4071102603181037
-0.4962706566874999	0.40946080923034595
-0.4962096215312499	0.4101383974160656
-0.4961485863749999	0.4091388261625561
-0.4960875512187499	0.4064646350391026
-0.4960265160624999	0.4021251400369475
-0.4959654809062499	0.3961363929682058
-0.4959044457499999	0.38852111051900184
-0.4958434105937499	0.3793086106438621
-0.4957823754374999	0.3685346569368034
-0.4957213402812499	0.35624137008450063
-0.4956603051249999	0.3424770298364507
-0.4955992699687499	0.32729586541036904
-0.4955382348124999	0.31075790988061525
-0.4954771996562499	0.2929286899310044
-0.4954161644999999	0.27387898791278853
-0.4953551293437499	0.2536845855138185
-0.4952940941874999	0.2324259325845449
-0.4952330590312499	0.21018783625451812
-0.4951720238749999	0.18705910108084708
-0.4951109887187499	0.16313223033725313
-0.4950499535624999	0.1385029978449852
-0.4949889184062499	0.11327004408718776
-0.4949278832499999	0.08753460855105832
-0.4948668480937499	0.061399973649602854
-0.4948058129374999	0.0349710731087677
-0.4947447777812499	0.00835422650024521
-0.4946837426249999	-0.018343505138634128
-0.4946227074687499	-0.045014665721120284
-0.4945616723124999	-0.07155171607545772
-0.4945006371562499	-0.09784767874155832
-0.4944396019999999	-0.12379645900884509
-0.4943785668437499	-0.14929319504496028
-0.4943175316874999	-0.17423486812204725
-0.4942564965312499	-0.19852056705345794
-0.4941954613749999	-0.22205195431538396
-0.4941344262187499	-0.244733685303908
-0.4940733910624999	-0.2664736852635253
-0.4940123559062499	-0.28718372758315663
-0.4939513207499999	-0.306779594286572
-0.4938902855937499	-0.32518146589992547
-0.4938292504374999	-0.3423143471727546
-0.4937682152812499	-0.3581082695167559
-0.4937071801249999	-0.372498582026788
-0.4936461449687499	-0.38542625093190946
-0.4935851098124999	-0.3968381343609448
-0.4935240746562499	-0.4066870830684461
-0.4934630394999999	-0.41493225578963544
-0.4934020043437499	-0.4215392289014659
-0.4933409691874999	-0.42648013716551625
-0.4932799340312499	-0.4297338303397948
-0.4932188988749999	-0.43128588686584596
-0.4931578637187499	-0.4311287757678147
-0.4930968285624999	-0.42926181330383384
-0.4930357934062499	-0.42569118432030506
-0.4929747582499999	-0.42042996173520675
-0.4929137230937499	-0.41349800669977105
-0.4928526879374999	-0.40492192589655657
-0.4927916527812499	-0.3947349449731003
-0.4927306176249999	-0.3829768052340301
-0.4926695824687499	-0.3696935900032461
-0.4926085473124999	-0.3549375122054491
-0.4925475121562499	-0.33876680003023796
-0.4924864769999999	-0.32124535531945386
-0.4924254418437499	-0.3024425327236697
-0.4923644066874999	-0.28243297010768764
-0.4923033715312499	-0.2612960796898682
-0.4922423363749999	-0.2391159150659952
-0.4921813012187499	-0.21598079183883903
-0.4921202660624999	-0.1919828107127352
-0.4920592309062499	-0.16721770000637198
-0.4919981957499999	-0.14178424860815306
-0.4919371605937499	-0.11578399153391493
-0.4918761254374999	-0.08932077902016884
-0.4918150902812499	-0.06250040388100593
-0.4917540551249999	-0.03543009195140827
-0.4916930199687499	-0.008218108232843836
-0.4916319848124999	0.019026575922522205
-0.4915709496562499	0.046194975210394416
-0.4915099144999999	0.07317824403527781
-0.4914488793437499	0.09986829599361846
-0.4913878441874999	0.12615820562507216
-0.4913268090312499	0.1519426138275425
-0.4912657738749999	0.17711816704784017
-0.4912047387187499	0.20158390657974656
-0.4911437035624999	0.2252418043443677
-0.4910826684062499	0.24799694099412659
-0.4910216332499999	0.26975809804404777
-0.4909605980937499	0.2904380264815252
-0.4908995629374999	0.30995379368390064
-0.4908385277812499	0.3282271827937296
-0.4907774926249999	0.34518495188435944
-0.4907164574687499	0.36075915518272106
-0.4906554223124999	0.3748874251376433
-0.4905943871562499	0.3875132457587121
-0.4905333519999999	0.39858608824146496
-0.4904723168437499	0.4080617738281346
-0.4904112816874999	0.4159025290681201
-0.4903502465312499	0.42207715759011594
-0.4902892113749999	0.4265612537714901
-0.4902281762187499	0.4293371863814623
-0.4901671410624999	0.4303942658991211
-0.4901061059062499	0.42972873875963735
-0.4900450707499999	0.4273438162972173
-0.4899840355937499	0.42324968245355643
-0.4899230004374999	0.4174634288139666
-0.4898619652812499	0.4100089972411252
-0.4898009301249999	0.40091709420752575
-0.4897398949687499	0.39022506545544877
-0.4896788598124999	0.37797671602538596
-0.4896178246562499	0.3642221970694694
-0.4895567894999999	0.34901774657915274
-0.4894957543437499	0.3324254748850319
-0.4894347191874999	0.31451315017843856
-0.4893736840312499	0.2953538810665125
-0.4893126488749999	0.2750258474051622
-0.4892516137187499	0.2536119582740905
-0.4891905785624999	0.23119956586767987
-0.4891295434062499	0.20788005519787697
-0.4890685082499999	0.18374849344151623
-0.4890074730937499	0.15890328955936275
-0.4889464379374999	0.13344570889366153
-0.4888854027812499	0.10747953117955579
-0.4888243676249999	0.0811106204975032
-0.4887633324687499	0.05444645954999343
-0.4887022973124999	0.027595738208742848
-0.4886412621562499	0.0006679218952190333
-0.4885802269999999	-0.02622720088050674
-0.4885191918437499	-0.052980012406691195
-0.4884581566874999	-0.0794814233710537
-0.4883971215312499	-0.10562336393101682
-0.4883360863749999	-0.1312992950950721
-0.4882750512187499	-0.15640446765740304
-0.4882140160624999	-0.18083653805890468
-0.4881529809062499	-0.2044958824402019
-0.4880919457499999	-0.22728596594155867
-0.4880309105937499	-0.24911390950657528
-0.4879698754374999	-0.2698906477924502
-0.4879088402812499	-0.2895314415553782
-0.4878478051249999	-0.30795621085140173
-0.4877867699687499	-0.32508979202912597
-0.4877257348124999	-0.3408623231638539
-0.4876646996562499	-0.3552094746529456
-0.4876036644999999	-0.3680727510610652
-0.4875426293437499	-0.37939973048419573
-0.4874815941874999	-0.3891442314635781
-0.4874205590312499	-0.3972665651211007
-0.4873595238749999	-0.40373369856749997
-0.4872984887187499	-0.40851931565284466
-0.4872374535624999	-0.41160400811554965
-0.4871764184062499	-0.4129753494721602
-0.4871153832499999	-0.41262789199845595
-0.4870543480937499	-0.41056323593705685
-0.4869933129374999	-0.4067900439395057
-0.4869322777812499	-0.40132395267709914
-0.4868712426249999	-0.3941875439240474
-0.4868102074687499	-0.3854102793200743
-0.4867491723124999	-0.3750283136851161
-0.4866881371562499	-0.363084423471775
-0.4866271019999999	-0.3496278050957207
-0.4865660668437499	-0.33471382946680683
-0.4865050316874999	-0.3184039255707118
-0.4864439965312499	-0.30076523055980253
-0.4863829613749999	-0.2818703398063628
-0.4863219262187499	-0.26179708794062884
-0.4862608910624999	-0.24062810666911522
-0.4861998559062499	-0.21845059093839633
-0.4861388207499999	-0.1953559065034766
-0.4860777855937499	-0.17143920853849537
-0.4860167504374999	-0.1467990683999582
-0.4859557152812499	-0.12153704877568443
-0.4858946801249999	-0.0957573668344097
-0.4858336449687499	-0.06956633512288199
-0.4857726098124999	-0.043072030736925365
-0.4857115746562499	-0.016383852442876795
-0.4856505394999999	0.010387979118678595
-0.4855895043437499	0.037132879536338835
-0.4855284691874999	0.06374029248133184
-0.4854674340312499	0.09010010861105944
-0.4854063988749999	0.11610332952884056
-0.4853453637187499	0.1416422611932522
-0.4852843285624999	0.16661102499923677
-0.4852232934062499	0.19090617465541188
-0.4851622582499999	0.21442686028921623
-0.4851012230937499	0.23707536336727875
-0.4850401879374999	0.258757565127291
-0.4849791527812499	0.2793832022929518
-0.4849181176249999	0.29886632954730424
-0.4848570824687499	0.3171256394449857
-0.4847960473124999	0.334084804821449
-0.4847350121562499	0.34967281471494643
-0.4846739769999999	0.36382420299840684
-0.4846129418437499	0.3764794298737688
-0.4845519066874999	0.3875850185507617
-0.4844908715312499	0.39709383482083715
-0.4844298363749999	0.40496531046999995
-0.4843688012187499	0.41116551623927206
-0.4843077660624999	0.4156674304076927
-0.4842467309062499	0.4184509609400444
-0.4841856957499999	0.41950304653827236
-0.4841246605937499	0.4188177722537158
-0.4840636254374999	0.4163963243878183
-0.4840025902812499	0.4122470286970424
-0.4839415551249999	0.40638532784929565
-0.4838805199687499	0.3988336819065317
-0.4838194848124999	0.3896215449534355
-0.4837584496562499	0.37878517792488947
-0.4836974144999999	0.3663675438733278
-0.4836363793437499	0.35241816626997735
-0.4835753441874999	0.33699282756907867
-0.4835143090312499	0.3201534716659108
-0.4834532738749999	0.30196786748014154
-0.4833922387187499	0.28250934981373765
-0.4833312035624999	0.2618565485201851
-0.4832701684062499	0.24009305718309568
-0.4832091332499999	0.21730708124598694
-0.4831480980937499	0.19359106010850516
-0.4830870629374999	0.16904137750362813
-0.4830260277812499	0.14375786858277947
-0.4829649926249999	0.11784344461544698
-0.4829039574687499	0.09140369409747055
-0.4828429223124999	0.06454649044782654
-0.4827818871562499	0.03738140036479982
-0.4827208519999999	0.010019369700651945
-0.4826598168437499	-0.017427681475902783
-0.4825987816874999	-0.044847530592584985
-0.4825377465312499	-0.07212792012021975
-0.4824767113749999	-0.0991570807237069
-0.4824156762187499	-0.12582418590419284
-0.4823546410624999	-0.15201986196548423
-0.4822936059062499	-0.1776365295565729
-0.4822325707499999	-0.20256893459774755
-0.4821715355937499	-0.226714577088211
-0.4821105004374999	-0.24997402950276779
-0.4820494652812499	-0.27225154246997574
-0.4819884301249999	-0.2934552005566469
-0.4819273949687499	-0.31349752828549016
-0.4818663598124999	-0.3322956858333301
-0.4818053246562499	-0.3497718644563159
-0.4817442894999999	-0.36585373113877495
-0.4816832543437499	-0.38047443643720424
-0.4816222191874999	-0.39357323169705505
-0.4815611840312499	-0.40509548602273426
-0.4815001488749999	-0.41499297770733407
-0.4814391137187499	-0.423224189291941
-0.4813780785624999	-0.4297542957644641
-0.4813170434062499	-0.4345555021275572
-0.4812560082499999	-0.4376070426718872
-0.4811949730937499	-0.4388952910531174
-0.4811339379374999	-0.4384138716518698
-0.4810729027812499	-0.4361636158557324
-0.4810118676249999	-0.4321526199162161
-0.4809508324687499	-0.4263961942447645
-0.4808897973124999	-0.41891679018282396
-0.4808287621562499	-0.40974395133191854
-0.4807677269999999	-0.3989141460091109
-0.4807066918437499	-0.38647066875479663
-0.4806456566874999	-0.372463436993475
-0.4805846215312499	-0.35694878248052253
-0.4805235863749999	-0.33998927173743676
-0.4804625512187499	-0.3216533965962109
-0.4804015160624999	-0.30201530278555466
-0.4803404809062499	-0.28115454435459614
-0.4802794457499999	-0.25915570856869824
-0.4802184105937499	-0.23610801640130147
-0.4801573754374999	-0.21210514820353596
-0.4800963402812499	-0.1872446354675644
-0.4800353051249999	-0.16162755400196352
-0.4799742699687499	-0.1353582589102782
-0.4799132348124999	-0.10854361930850774
-0.4798521996562499	-0.08129291376346195
-0.4797911644999999	-0.05371725535784412
-0.4797301293437499	-0.025929000255264983
-0.4796690941874999	0.0019584563684645136
-0.4796080590312499	0.02983130725059386
-0.4795470238749999	0.05757581084565598
-0.4794859887187499	0.08507872246740059
-0.4794249535624999	0.11222765218501107
-0.4793639184062499	0.13891176674527012
-0.4793028832499999	0.16502206654384186
-0.4792418480937499	0.19045175970568864
-0.4791808129374999	0.21509705600789056
-0.4791197777812499	0.23885716024643489
-0.4790587426249999	0.26163493485687017
-0.4789977074687499	0.2833373722077569
-0.4789366723124999	0.3038756746372219
-0.4788756371562499	0.3231659610924315
-0.4788146019999999	0.34112942229583404
-0.4787535668437499	0.3576926215268875
-0.4786925316874999	0.372787976789144
-0.4786314965312499	0.38635385460394034
-0.4785704613749999	0.39833491142321037
-0.4785094262187499	0.40868235391509267
-0.4784483910624999	0.41735406277888326
-0.4783873559062499	0.4243148333769576
-0.4783263207499999	0.42953649105569386
-0.4782652855937499	0.4329980167426114
-0.4782042504374999	0.43468566147447946
-0.4781432152812499	0.4345929463548723
-0.4780821801249999	0.4327207542339118
-0.4780211449687499	0.4290773070664582
-0.4779601098124999	0.42367810844161347
-0.4778990746562499	0.4165459158538669
-0.4778380394999999	0.4077106518545239
-0.4777770043437499	0.3972092445849929
-0.4777159691874999	0.3850855060937975
-0.4776549340312499	0.37138998389429784
-0.4775938988749999	0.3561796569840548
-0.4775328637187499	0.3395178282324933
-0.4774718285624999	0.3214737783007493
-0.4774107934062499	0.30212247060691855
-0.4773497582499999	0.28154435767012487
-0.4772887230937499	0.2598249013003105
-0.4772276879374999	0.23705429065768976
-0.4771666527812499	0.21332714536677547
-0.4771056176249999	0.18874197519376087
-0.4770445824687499	0.1634008491106438
-0.4769835473124999	0.13740905195206898
-0.4769225121562499	0.11087447600171384
-0.4768614769999999	0.08390733829466032
-0.4768004418437499	0.05661963524486829
-0.4767394066874999	0.029124682350085782
-0.4766783715312499	0.001536738335178146
-0.4766173363749999	-0.02602965893231461
-0.4765563012187499	-0.05345994796641939
-0.4764952660624999	-0.08064013036600223
-0.4764342309062499	-0.1074573024671956
-0.4763731957499999	-0.13379997946841818
-0.4763121605937499	-0.15955865996678809
-0.4762511254374999	-0.18462624926455576
-0.4761900902812499	-0.2088985219805867
-0.4761290551249999	-0.23227453402105508
-0.4760680199687499	-0.2546570128852568
-0.4760069848124999	-0.27595287161436677
-0.4759459496562499	-0.2960734849329641
-0.4758849144999999	-0.31493505959807394
-0.4758238793437499	-0.33245911605220774
-0.4757628441874999	-0.34857265202512117
-0.4757018090312499	-0.36320851840719176
-0.4756407738749999	-0.37630575923843546
-0.4755797387187499	-0.38780975096749676
-0.4755187035624999	-0.39767251124922803
-0.4754576684062499	-0.4058528961632657
-0.4753966332499999	-0.4123167271754975
-0.4753355980937499	-0.41703699118948134
-0.4752745629374999	-0.4199939293578033
-0.4752135277812499	-0.42117510327237545
-0.4751524926249999	-0.4205754988456598
-0.4750914574687499	-0.41819750525800936
-0.4750304223124999	-0.41405092659173326
-0.4749693871562499	-0.4081529565138093
-0.4749083519999999	-0.4005280691519306
-0.4748473168437499	-0.39120798633633136
-0.4747862816874999	-0.3802314773302581
-0.4747252465312499	-0.36764423297452187
-0.4746642113749999	-0.3534987294681456
-0.4746031762187499	-0.3378538911008974
-0.4745421410624999	-0.3207749617612135
-0.4744811059062499	-0.3023332068707282
-0.4744200707499999	-0.28260557510504897
-0.4743590355937499	-0.2616744146624453
-0.4742980004374999	-0.23962716026637754
-0.4742369652812499	-0.21655593870058143
-0.4741759301249999	-0.19255712577700723
-0.4741148949687499	-0.1677311188347071
-0.4740538598124999	-0.14218173836373543
-0.4739928246562499	-0.1160158670444979
-0.4739317894999999	-0.08934309531447196
-0.4738707543437499	-0.06227506981468474
-0.4738097191874999	-0.03492522608566564
-0.4737486840312499	-0.007408207567828138
-0.4736876488749999	0.020160622865811495
-0.4736266137187499	0.04766555935696626
-0.4735655785624999	0.07499115393426752
-0.4735045434062499	0.10202263384752569
-0.4734435082499999	0.12864639886634452
-0.4733824730937499	0.15475047068068826
-0.4733214379374999	0.18022499663031408
-0.4732604027812499	0.20496271431179383
-0.4731993676249999	0.22885931888634273
-0.4731383324687499	0.2518140215139645
-0.4730772973124999	0.2737299004668779
-0.4730162621562499	0.294514266273043
-0.4729552269999999	0.31407916989122886
-0.4728941918437499	0.3323416776747896
-0.4728331566874999	0.34922421457649905
-0.4727721215312499	0.36465499169303495
-0.4727110863749999	0.37856819296334265
-0.4726500512187499	0.3909042930285202
-0.4725890160624999	0.401610368419444
-0.4725279809062499	0.41064023473244876
-0.4724669457499999	0.41795468735910013
-0.4724059105937499	0.42352166262367535
-0.4723448754374999	0.4273163911192102
-0.4722838402812499	0.4293214775956926
-0.4722228051249999	0.4295269878390386
-0.4721617699687499	0.4279305182621826
-0.4721007348124999	0.42453716984469064
-0.4720396996562499	0.41935956623713966
-0.4719786644999999	0.41241779051277494
-0.4719176293437499	0.40373930408923736
-0.4718565941874999	0.3933588428303992
-0.4717955590312499	0.38131828162718323
-0.4717345238749999	0.36766644119416514
-0.4716734887187499	0.3524589228590596
-0.4716124535624999	0.3357578539581127
-0.4715514184062499	0.3176316354337119
-0.4714903832499999	0.29815469272061224
-0.4714293480937499	0.27740709111399275
-0.4713683129374999	0.25547430981271574
-0.4713072777812499	0.2324468257566431
-0.4712462426249999	0.20841970538020207
-0.4711852074687499	0.18349229886779975
-0.4711241723124999	0.15776778814343828
-0.4710631371562499	0.13135269974557456
-0.4710021019999999	0.10435657779117982
-0.4709410668437499	0.07689143606476517
-0.4708800316874999	0.04907128713253028
-0.4708189965312499	0.021011817500261595
-0.4707579613749999	-0.007170361116942606
-0.4706969262187499	-0.03535794432612789
-0.4706358910624999	-0.0634335274508794
-0.4705748559062499	-0.09128016854792062
-0.4705138207499999	-0.11878171904553154
-0.4704527855937499	-0.14582345404684072
-0.4703917504374999	-0.17229245231098977
-0.4703307152812499	-0.1980781427997993
-0.4702696801249999	-0.22307270086299752
-0.4702086449687499	-0.24717155933422763
-0.4701476098124999	-0.27027381601571404
-0.4700865746562499	-0.292282645808141
-0.4700255394999999	-0.3131057513345184
-0.4699645043437499	-0.332655716776848
-0.4699034691874999	-0.350850365005631
-0.4698424340312499	-0.36761313472089124
-0.4697813988749999	-0.3828734370304109
