Time	Frequency
-0.5000078681562528	0.023628961117919407
-0.49994683300000275	0.003815155785470941
-0.49988579784375275	-0.015993602082259212
-0.49982476268750275	-0.03573988704115892
-0.49976372753125275	-0.05536655145905138
-0.49970269237500275	-0.07481670052136773
-0.49964165721875275	-0.09403400046419118
-0.49958062206250275	-0.11296275395735826
-0.49951958690625275	-0.13154807840900698
-0.49945855175000275	-0.14973614327018736
-0.49939751659375275	-0.16747417795994066
-0.49933648143750275	-0.18471079027728998
-0.49927544628125275	-0.20139599051376705
-0.49921441112500275	-0.21748140469798183
-0.49915337596875275	-0.23292041381558845
-0.49909234081250275	-0.24766823349811795
-0.49903130565625275	-0.2616821351878657
-0.49897027050000275	-0.274921483885271
-0.49890923534375275	-0.2873479288771438
-0.49884820018750275	-0.29892546880703924
-0.49878716503125275	-0.30962055827217333
-0.49872612987500275	-0.3194022726221093
-0.49866509471875275	-0.3282422807316032
-0.49860405956250275	-0.33611504970921646
-0.49854302440625275	-0.34299786441281344
-0.49848198925000275	-0.34887084816902353
-0.49842095409375275	-0.35371714550710026
-0.49835991893750275	-0.35752284480885904
-0.49829888378125275	-0.36027708413488435
-0.49823784862500275	-0.3619721030462807
-0.49817681346875275	-0.3626032020473273
-0.49811577831250275	-0.36216881272413437
-0.49805474315625275	-0.3606704821644081
-0.49799370800000275	-0.35811286882016125
-0.49793267284375275	-0.3545037336150582
-0.49787163768750275	-0.3498539198869237
-0.49781060253125275	-0.3441773200292106
-0.49774956737500275	-0.3374908337460402
-0.49768853221875275	-0.3298143310865231
-0.49762749706250275	-0.3211705756490577
-0.49756646190625275	-0.3115851831742797
-0.49750542675000275	-0.30108652689271653
-0.49744439159375275	-0.2897056614764163
-0.49738335643750275	-0.27747625397095715
-0.49732232128125275	-0.26443443574023495
-0.49726128612500275	-0.25061876557986945
-0.49720025096875275	-0.23607005605546746
-0.49713921581250275	-0.2208312898881871
-0.49707818065625275	-0.2049474946282945
-0.49701714550000275	-0.18846556868395112
-0.49695611034375275	-0.17143423870886101
-0.49689507518750275	-0.15390378755103193
-0.49683404003125275	-0.1359260247860519
-0.49677300487500275	-0.11755409762169063
-0.49671196971875275	-0.09884225368263172
-0.49665093456250275	-0.07984583645060832
-0.49658989940625275	-0.06062101203679331
-0.49652886425000275	-0.04122460469599768
-0.49646782909375275	-0.02171400160371564
-0.49640679393750275	-0.0021469277169945374
-0.49634575878125275	0.01741872108746784
-0.49628472362500275	0.03692500743454487
-0.49622368846875275	0.056314190174577006
-0.49616265331250275	0.07552881630693549
-0.49610161815625275	0.0945119380504867
-0.49604058300000275	0.1132073078828464
-0.49597954784375275	0.1315594132975199
-0.49591851268750275	0.1495138517044209
-0.49585747753125275	0.16701729565083334
-0.49579644237500275	0.18401771044816834
-0.49573540721875275	0.2004646314392011
-0.49567437206250275	0.2163090517058302
-0.49561333690625275	0.23150384665161997
-0.49555230175000275	0.2460037549290606
-0.49549126659375275	0.25976547314120585
-0.49543023143750275	0.2727479823554633
-0.49536919628125275	0.2849124348783819
-0.49530816112500275	0.2962224136988108
-0.49524712596875275	0.3066440506751559
-0.49518609081250275	0.316145991820982
-0.49512505565625275	0.3246996540827039
-0.49506402050000275	0.3322792275210762
-0.49500298534375275	0.3388617143705289
-0.49494195018750275	0.3444271030876935
-0.49488091503125275	0.3489583502045423
-0.49481987987500275	0.35244143955721086
-0.49475884471875275	0.3548654634263409
-0.49469780956250275	0.3562226227017573
-0.49463677440625275	0.3565082527164661
-0.49457573925000275	0.3557208597791684
-0.49451470409375275	0.3538621115143064
-0.49445366893750275	0.3509368284275533
-0.49439263378125275	0.34695299027630616
-0.49433159862500275	0.34192169992062904
-0.49427056346875275	0.33585714934527583
-0.49420952831250275	0.32877660286230487
-0.49414849315625275	0.3207003085046237
-0.49408745800000275	0.3116514857216503
-0.49402642284375275	0.3016562229293171
-0.49396538768750275	0.2907434094379053
-0.49390435253125275	0.27894469032385244
-0.49384331737500275	0.26629428302180735
-0.49378228221875275	0.2528290047516471
-0.49372124706250275	0.2385880532276909
-0.49366021190625275	0.22361293939077573
-0.49359917675000275	0.20794740188978814
-0.49353814159375275	0.1916371880043447
-0.49347710643750275	0.1747300222764869
-0.49341607128125275	0.15727537993155338
-0.49335503612500275	0.13932441928023126
-0.49329400096875275	0.12092976115342827
-0.49323296581250275	0.1021453793351211
-0.49317193065625275	0.0830264404191841
-0.49311089550000275	0.06362911351378348
-0.49304986034375275	0.04401044660906268
-0.49298882518750275	0.024228134182057888
-0.49292779003125275	0.004340460701743128
-0.49286675487500275	-0.015594023008907021
-0.49280571971875275	-0.035516538538881516
-0.49274468456250275	-0.05536830051134649
-0.49268364940625275	-0.07509076342872455
-0.49262261425000275	-0.09462561931355001
-0.49256157909375275	-0.11391517337499169
-0.49250054393750275	-0.13290236761920007
-0.49243950878125275	-0.15153098756207284
-0.49237847362500275	-0.16974590333134315
-0.49231743846875275	-0.18749307752266048
-0.49225640331250275	-0.20471990357692066
-0.49219536815625275	-0.2213752310397543
-0.49213433300000275	-0.2374095426369449
-0.49207329784375275	-0.25277519015458655
-0.49201226268750275	-0.26742637227359345
-0.49195122753125275	-0.2813194408630571
-0.49189019237500275	-0.2944129333069994
-0.49182915721875275	-0.30666767392505095
-0.49176812206250275	-0.3180470049267796
-0.49170708690625275	-0.3285167697241485
-0.49164605175000275	-0.3380454919900113
-0.49158501659375275	-0.3466044501781697
-0.49152398143750275	-0.354167743791132
-0.49146294628125275	-0.3607124179095173
-0.49140191112500275	-0.36621848025808607
-0.49134087596875275	-0.3706689935720373
-0.49127984081250275	-0.37405011939073696
-0.49121880565625275	-0.3763511616995752
-0.49115777050000275	-0.3775645979870886
-0.49109673534375275	-0.37768610093873356
-0.49103570018750275	-0.3767145647947316
-0.49097466503125275	-0.3746520916962757
-0.49091362987500275	-0.3715040057509782
-0.49085259471875275	-0.3672788257464303
-0.49079155956250275	-0.36198825023801795
-0.49073052440625275	-0.35564712077585425
-0.49066948925000275	-0.34827337425735566
-0.49060845409375275	-0.3398880125089616
-0.49054741893750275	-0.3305150099286269
-0.49048638378125275	-0.3201812733049102
-0.49042534862500275	-0.308916556381038
-0.49036431346875275	-0.2967533416937021
-0.49030327831250275	-0.2837268221731479
-0.49024224315625275	-0.2698747034507836
-0.49018120800000275	-0.2552371549875625
-0.49012017284375275	-0.23985671651394508
-0.49005913768750275	-0.2237780628013892
-0.48999810253125275	-0.20704800892361183
-0.48993706737500275	-0.1897152911447778
-0.48987603221875275	-0.17183041761192192
-0.48981499706250275	-0.1534455891155162
-0.48975396190625275	-0.1346144696277105
-0.48969292675000275	-0.11539205991482555
-0.48963189159375275	-0.09583456449989937
-0.48957085643750275	-0.07599917206654688
-0.48950982128125275	-0.05594391432551373
-0.48944878612500275	-0.035727515830723575
-0.48938775096875275	-0.015409168078694038
-0.48932671581250275	0.0049515930891000206
-0.48926568065625275	0.025295082682513417
-0.48920464550000275	0.04556167667481731
-0.48914361034375275	0.06569191898875751
-0.48908257518750275	0.08562674784425875
-0.48902154003125275	0.10530767584513824
-0.48896050487500275	0.12467691344167516
-0.48889946971875275	0.14367760980208114
-0.48883843456250275	0.16225394327307144
-0.48877739940625275	0.18035136573142094
-0.48871636425000275	0.1979167125236774
-0.48865532909375275	0.21489833875030248
-0.48859429393750275	0.23124638631229016
-0.48853325878125275	0.24691278247479584
-0.48847222362500275	0.2618514767570185
-0.48841118846875275	0.27601858170816185
-0.48835015331250275	0.28937244782748006
-0.48828911815625275	0.3018738203598147
-0.48822808300000275	0.3134859846383172
-0.48816704784375275	0.3241748108012387
-0.48810601268750275	0.33390889830784126
-0.48804497753125275	0.34265969662413936
-0.48798394237500275	0.3504015028416319
-0.48792290721875275	0.3571116392065913
-0.48786187206250275	0.3627704577498745
-0.48780083690625275	0.3673614163859198
-0.48773980175000275	0.37087114001558313
-0.48767876659375275	0.373289440071194
-0.48761773143750275	0.37460937707433006
-0.48755669628125275	0.37482724555640407
-0.48749566112500275	0.373942615818932
-0.48743462596875275	0.3719583248296625
-0.48737359081250275	0.36888046597209484
-0.48731255565625275	0.364718381375065
-0.48725152050000275	0.3594846250632029
-0.48719048534375275	0.3531949401294717
-0.48712945018750275	0.3458681977685766
-0.48706841503125275	0.33752635395907876
-0.48700737987500275	0.3281943884857276
-0.48694634471875275	0.3179002059483108
-0.48688530956250275	0.3066746029082234
-0.48682427440625275	0.2945511192582376
-0.48676323925000275	0.2815659864022087
-0.48670220409375275	0.26775800362536767
-0.48664116893750275	0.2531683975139336
-0.48658013378125275	0.23784078126685518
-0.48651909862500275	0.22182089722885215
-0.48645806346875275	0.20515661429509108
-0.48639702831250275	0.18789771763835772
-0.48633599315625275	0.17009572582822016
-0.48627495800000275	0.1518038468626401
-0.48621392284375275	0.13307671801681278
-0.48615288768750275	0.11397029925943103
-0.48609185253125275	0.09454166520165098
-0.48603081737500275	0.07484890442779506
-0.48596978221875275	0.05495087048269708
-0.48590874706250275	0.03490704249482799
-0.48584771190625275	0.014777372700880444
-0.48578667675000275	-0.0053779522128055155
-0.48572564159375275	-0.025498628144974927
-0.48566460643750275	-0.04552448055821668
-0.48560357128125275	-0.06539553466443575
-0.48554253612500275	-0.08505234802479636
-0.48548150096875275	-0.10443605151793729
-0.48542046581250275	-0.12348856775975532
-0.48535943065625275	-0.14215286455839954
-0.48529839550000275	-0.16037296119299083
-0.48523736034375275	-0.17809426593781788
-0.48517632518750275	-0.19526361969730627
-0.48511529003125275	-0.21182952128381968
-0.48505425487500275	-0.22774225417220403
-0.48499321971875275	-0.24295402519140627
-0.48493218456250275	-0.25741915475330274
-0.48487114940625275	-0.27109416010897164
-0.48481011425000275	-0.2839379066331156
-0.48474907909375275	-0.2959117382262008
-0.48468804393750275	-0.30697963022203706
-0.48462700878125275	-0.3171081733327582
-0.48456597362500275	-0.32626682533254686
-0.48450493846875275	-0.3344279397461531
-0.48444390331250275	-0.341566783597738
-0.48438286815625275	-0.3476617566566021
-0.48432183300000275	-0.3526943167918597
-0.48426079784375275	-0.35664912013184946
-0.48419976268750275	-0.3595140554899902
-0.48413872753125275	-0.36128024318881075
-0.48407769237500275	-0.3619421209335414
-0.48401665721875275	-0.3614974129433678
-0.48395562206250275	-0.35994716843280583
-0.48389458690625275	-0.3572957428813925
-0.48383355175000275	-0.35355080013134277
-0.48377251659375275	-0.34872327986799445
-0.48371148143750275	-0.3428273702634459
-0.48365044628125275	-0.3358804742635329
-0.48358941112500275	-0.32790314181283414
-0.48352837596875275	-0.31891903539811767
-0.48346734081250275	-0.3089548302768478
-0.48340630565625275	-0.29804016354783996
-0.48334527050000275	-0.28620753845460534
-0.48328423534375275	-0.2734922017335172
-0.48322320018750275	-0.2599321006965548
-0.48316216503125275	-0.24556770686411966
-0.48310112987500275	-0.23044192136990355
-0.48304009471875275	-0.21459997470665604
-0.48297905956250275	-0.1980892296163015
-0.48291802440625275	-0.1809591279159377
-0.48285698925000275	-0.16326094276802236
-0.48279595409375275	-0.14504769405731166
-0.48273491893750275	-0.1263740208362406
-0.48267388378125275	-0.10729586570199862
-0.48261284862500275	-0.0878705235111247
-0.48255181346875275	-0.0681563196736582
-0.48249077831250275	-0.04821241739558367
-0.48242974315625275	-0.02809881717623984
-0.48236870800000275	-0.00787596250095757
-0.48230767284375275	0.012395319167793626
-0.48224663768750275	0.03265397061765012
-0.48218560253125275	0.05283901120329231
-0.48212456737500275	0.07288961995264939
-0.48206353221875275	0.09274531921836895
-0.48200249706250275	0.11234621875568561
-0.48194146190625275	0.13163315885777727
-0.48188042675000275	0.1505478501450226
-0.48181939159375275	0.16903312628494227
-0.48175835643750275	0.18703308172931143
-0.48169732128125275	0.20449318620669496
-0.48163628612500275	0.22136054186948298
-0.48157525096875275	0.2375840153962192
-0.48151421581250275	0.25311429914131106
-0.48145318065625275	0.2679042112899268
-0.48139214550000275	0.2819087621047486
-0.48133111034375275	0.29508520826442586
-0.48127007518750275	0.30739338235371494
-0.48120904003125275	0.31879562663907596
-0.48114800487500275	0.32925697102040763
-0.48108696971875275	0.33874531018853554
-0.48102593456250275	0.34723137487566935
-0.48096489940625275	0.35468892879343394
-0.48090386425000275	0.36109477749155283
-0.48084282909375275	0.3664288871188548
-0.48078179393750275	0.37067442699181163
-0.48072075878125275	0.37381779704073054
-0.48065972362500275	0.3758487396880473
-0.48059868846875275	0.3767602919864219
-0.48053765331250275	0.37654885237120617
-0.48047661815625275	0.3752142039141751
-0.48041558300000275	0.3727594802007617
-0.48035454784375275	0.36919118330594386
-0.48029351268750275	0.364519161837101
-0.48023247753125275	0.35875658229422824
-0.48017144237500275	0.35191988244508243
-0.48011040721875275	0.3440287413070679
-0.48004937206250275	0.3351060100652604
-0.47998833690625275	0.3251776413161023
-0.47992730175000275	0.3142726265910538
-0.47986626659375275	0.30242290423392887
-0.47980523143750275	0.289663263034878
-0.47974419628125275	0.2760312314347464
-0.47968316112500275	0.26156699639636805
-0.47962212596875275	0.2463132499706041
-0.47956109081250275	0.2303150675236347
-0.47950005565625275	0.21361981782998318
-0.47943902050000275	0.19627694787822053
-0.47937798534375275	0.17833788111474635
-0.47931695018750275	0.1598559005569346
-0.47925591503125275	0.1408858746731317
-0.47919487987500275	0.12148422074629402
-0.47913384471875275	0.10170868251016749
-0.47907280956250275	0.0816181037074349
-0.47901177440625275	0.061272361844024514
-0.47895073925000275	0.040732097262621586
-0.47888970409375275	0.020058595841595885
-0.47882866893750275	-0.0006864830440493864
-0.47876763378125275	-0.021441168060683247
-0.47870659862500275	-0.04214343866483138
-0.47864556346875275	-0.06273149466098395
-0.47858452831250275	-0.08314367066548467
-0.47852349315625275	-0.10331896555790404
-0.47846245800000275	-0.12319700990468382
-0.47840142284375275	-0.1427182039494309
-0.47834038768750275	-0.16182415682856416
-0.47827935253125275	-0.18045757343356228
-0.47821831737500275	-0.19856255522928518
-0.47815728221875275	-0.21608486388866435
-0.47809624706250275	-0.23297188333482766
-0.47803521190625275	-0.24917289038492366
-0.47797417675000275	-0.2646393047517186
-0.47791314159375275	-0.2793245748626954
-0.47785210643750275	-0.29318458497115274
-0.47779107128125275	-0.3061776919039411
-0.47773003612500275	-0.31826470641712223
-0.47766900096875275	-0.3294093214221539
-0.47760796581250275	-0.3395779243452269
-0.47754693065625275	-0.3487398366726089
-0.47748589550000275	-0.356867478759294
-0.47742486034375275	-0.36393623912125905
-0.47736382518750275	-0.3699247775533484
-0.47730279003125275	-0.374814974420508
-0.47724175487500275	-0.3785919555136518
-0.47718071971875275	-0.38124426124473926
-0.47711968456250275	-0.38276375957871306
-0.47705864940625275	-0.3831457316819871
-0.47699761425000275	-0.3823889010969723
-0.47693657909375275	-0.38049538856864384
-0.47687554393750275	-0.37747075208053854
-0.47681450878125275	-0.3733239548756685
-0.47675347362500275	-0.3680673320595951
-0.47669243846875275	-0.3617165730950667
-0.47663140331250275	-0.3542906605618903
-0.47657036815625275	-0.34581182099327995
-0.47650933300000275	-0.33630546524162624
-0.47644829784375275	-0.32580009832709533
-0.47638726268750275	-0.3143272428429839
-0.47632622753125275	-0.30192136696851224
-0.47626519237500275	-0.2886197221819101
-0.47620415721875275	-0.27446230932039306
-0.47614312206250275	-0.2594917064671907
-0.47608208690625275	-0.24375293201823967
-0.47602105175000275	-0.2272933881778484
-0.47596001659375275	-0.21016259893506004
-0.47589898143750275	-0.19241219303602258
-0.47583794628125275	-0.17409562443934795
-0.47577691112500275	-0.15526809932267802
-0.47571587596875275	-0.13598641104410267
-0.47565484081250275	-0.11630864979892652
-0.47559380565625275	-0.09629422782080733
-0.47553277050000275	-0.07600350730520627
-0.47547173534375275	-0.055497735859206906
-0.47541070018750275	-0.03483883379436258
-0.47534966503125275	-0.014089160577522363
-0.47528862987500275	0.006688555428296885
-0.47522759471875275	0.02743160274831789
-0.47516655956250275	0.04807723664665165
-0.47510552440625275	0.06856302783110362
-0.47504448925000275	0.08882712325282205
-0.47498345409375275	0.10880811690310861
-0.47492241893750275	0.12844561814057456
-0.47486138378125275	0.14768020886996197
-0.47480034862500275	0.1664536084894821
-0.47473931346875275	0.18470904320728418
-0.47467827831250275	0.20239115203487426
-0.47461724315625275	0.21944641736762818
-0.47455620800000275	0.23582313293273202
-0.47449517284375275	0.2514716289695797
-0.47443413768750275	0.26634451700239997
-0.47437310253125275	0.28039661486198264
-0.47431206737500275	0.2935853168370465
-0.47425103221875275	0.3058705998437214
-0.47418999706250275	0.3172151267217569
-0.47412896190625275	0.3275844580798658
-0.47406792675000275	0.3369470703431801
-0.47400689159375275	0.3452744878822683
-0.47394585643750275	0.3525413837358926
-0.47388482128125275	0.3587256161569063
-0.47382378612500275	0.3638083441808747
-0.47376275096875275	0.36777406436834226
-0.47370171581250275	0.37061063030862673
-0.47364068065625275	0.37230936525068703
-0.47357964550000275	0.3728650129862407
-0.47351861034375275	0.37227578827658925
-0.47345757518750275	0.37054340821045245
-0.47339654003125275	0.36767303275725804
-0.47333550487500275	0.3636733000909334
-0.47327446971875275	0.358556278742703
-0.47321343456250275	0.3523374370379693
-0.47315239940625275	0.34503559350454993
-0.47309136425000275	0.3366728725481688
-0.47303032909375275	0.32727463006046786
-0.47296929393750275	0.3168693651913916
-0.47290825878125275	0.3054886813814201
-0.47284722362500275	0.2931671266261577
-0.47278618846875275	0.279942138618243
-0.47272515331250275	0.2658539207272081
-0.47266411815625275	0.25094531239220585
-0.47260308300000275	0.23526165936799773
-0.47254204784375275	0.21885069075260954
-0.47248101268750275	0.20176237209673134
-0.47241997753125275	0.18404872460921845
-0.47235894237500275	0.16576373807656816
-0.47229790721875275	0.14696310586557715
-0.47223687206250275	0.12770416431684473
-0.47217583690625275	0.10804563834571469
-0.47211480175000275	0.08804748403087695
-0.47205376659375275	0.06777077211842943
-0.47199273143750275	0.047277366779014486
-0.47193169628125275	0.026629873025130795
-0.47187066112500275	0.005891374415529059
-0.47180962596875275	-0.014874737264644191
-0.47174859081250275	-0.03560497770359831
-0.47168755565625275	-0.056235933132637334
-0.47162652050000275	-0.07670443336329913
-0.47156548534375275	-0.09694785680196626
-0.47150445018750275	-0.11690415820967638
-0.47144341503125275	-0.13651217718806868
-0.47138237987500275	-0.15571181563692987
-0.47132134471875275	-0.174444130316782
-0.47126030956250275	-0.19265162463469107
-0.47119927440625275	-0.2102783843384806
-0.47113823925000275	-0.22727019553894223
-0.47107720409375275	-0.2435747836458095
-0.47101616893750275	-0.2591419820954576
-0.47095513378125275	-0.2739237655147693
-0.47089409862500275	-0.28787456140308004
-0.47083306346875275	-0.3009512839011897
-0.47077202831250275	-0.3131134641759766
-0.47071099315625275	-0.3243234744519911
-0.47064995800000275	-0.3345464993917458
-0.47058892284375275	-0.34375076771271273
-0.47052788768750275	-0.3519075857900635
-0.47046685253125275	-0.35899144251602294
