Time	Frequency
-0.5000290865312564	-0.32065309694803107
-0.49996805137500644	-0.2997806501248354
-0.49990701621875644	-0.2774473506068155
-0.49984598106250644	-0.2537569827125014
-0.49978494590625644	-0.22881984779143744
-0.49972391075000644	-0.2027521422598917
-0.49966287559375644	-0.17567548245673822
-0.49960184043750644	-0.14771636906167707
-0.49954080528125644	-0.11900551894903388
-0.49947977012500644	-0.08967728892588847
-0.49941873496875644	-0.05986907711000421
-0.49935769981250644	-0.02972061545899885
-0.49929666465625644	0.0006266364998946792
-0.49923562950000644	0.03103017974364161
-0.49917459434375644	0.06134714218054613
-0.49911355918750644	0.091434903885471
-0.49905252403125644	0.12115189390673069
-0.49899148887500644	0.15035812579708352
-0.49893045371875644	0.17891584629237173
-0.49886941856250644	0.20669039006140721
-0.49880838340625644	0.2335505119146703
-0.49874734825000644	0.2593692427855659
-0.49868631309375644	0.28402448552046466
-0.49862527793750644	0.307399277669708
-0.49856424278125644	0.32938285944396095
-0.49850320762500644	0.3498708197611524
-0.49844217246875644	0.3687655234230398
-0.49838113731250644	0.3859770659077325
-0.49832010215625644	0.4014231623312566
-0.49825906700000644	0.41502973087572786
-0.49819803184375644	0.4267314795632845
-0.49813699668750644	0.43647181566577925
-0.49807596153125644	0.4442033804550428
-0.49801492637500644	0.4498882567363727
-0.49795389121875644	0.45349803747452344
-0.49789285606250644	0.4550140844442837
-0.49783182090625644	0.4544275383852594
-0.49777078575000644	0.4517394317218377
-0.49770975059375644	0.4469606438692013
-0.49764871543750644	0.4401118614515923
-0.49758768028125644	0.43122351220339705
-0.49752664512500644	0.42033560674037146
-0.49746560996875644	0.40749755686053185
-0.49740457481250644	0.3927679419643301
-0.49734353965625644	0.3762142769679413
-0.49728250450000644	0.35791263799784434
-0.49722146934375644	0.3379473590089693
-0.49716043418750644	0.3164106200601783
-0.49709939903125644	0.29340201835719565
-0.49703836387500644	0.2690281082551258
-0.49697732871875644	0.243401871462085
-0.49691629356250644	0.21664228497605476
-0.49685525840625644	0.18887363888768136
-0.49679422325000644	0.16022494649888322
-0.49673318809375644	0.13082961805470164
-0.49667215293750644	0.10082442324517714
-0.49661111778125644	0.07034898527660072
-0.49655008262500644	0.03954554748732931
-0.49648904746875644	0.008557538554128205
-0.49642801231250644	-0.02247058398882568
-0.49636697715625644	-0.05339388059725454
-0.49630594200000644	-0.08406822054265856
-0.49624490684375644	-0.11435041097352439
-0.49618387168750644	-0.14409903368768656
-0.49612283653125644	-0.17317521130744737
-0.49606180137500644	-0.20144320810223554
-0.49600076621875644	-0.22877102393697749
-0.49593973106250644	-0.2550309331844698
-0.49587869590625644	-0.2801004481546581
-0.49581766075000644	-0.3038624975016037
-0.49575662559375644	-0.32620602901507767
-0.49569559043750644	-0.3470269128728299
-0.49563455528125644	-0.36622800075177064
-0.49557352012500644	-0.38371969540112394
-0.49551248496875644	-0.3994205631678629
-0.49545144981250644	-0.41325755632414046
-0.49539041465625644	-0.4251663398710788
-0.49532937950000644	-0.43509167052927106
-0.49526834434375644	-0.44298768620418316
-0.49520730918750644	-0.44881805210636827
-0.49514627403125644	-0.45255614662495625
-0.49508523887500644	-0.45418522188894134
-0.49502420371875644	-0.4536984946223308
-0.49496316856250644	-0.4510991257994895
-0.49490213340625644	-0.44640025083913726
-0.49484109825000644	-0.439624926527216
-0.49478006309375644	-0.4308059811787426
-0.49471902793750644	-0.4199859308936164
-0.49465799278125644	-0.4072166901695883
-0.49459695762500644	-0.3925594115893795
-0.49453592246875644	-0.3760841939391674
-0.49447488731250644	-0.35786964059941173
-0.49441385215625644	-0.33800266639873405
-0.49435281700000644	-0.3165779561457459
-0.49429178184375644	-0.2936975548361492
-0.49423074668750644	-0.26947041155856216
-0.49416971153125644	-0.24401180575948186
-0.49410867637500644	-0.21744292424218314
-0.49404764121875644	-0.18989012089911642
-0.49398660606250644	-0.1614844324026615
-0.49392557090625644	-0.1323609555576162
-0.49386453575000644	-0.10265817518217867
-0.49380350059375644	-0.07251728367374118
-0.49374246543750644	-0.04208157845852249
-0.49368143028125644	-0.011495787775088662
-0.49362039512500644	0.0190947915594563
-0.49355935996875644	0.04954466185427477
-0.49349832481250644	0.07970911959074868
-0.49343728965625644	0.1094448191960103
-0.49337625450000644	0.13861035990492437
-0.49331521934375644	0.1670671969786856
-0.49325418418750644	0.19468001076496666
-0.49319314903125644	0.22131760129486014
-0.49313211387500644	0.24685338396321282
-0.49307107871875644	0.27116595977392766
-0.49301004356250644	0.29413983337034
-0.49294900840625644	0.31566584295364836
-0.49288797325000644	0.33564169368843716
-0.49282693809375644	0.35397251698676124
-0.49276590293750644	0.37057127188130023
-0.49270486778125644	0.3853591208889215
-0.49264383262500644	0.3982659335321985
-0.49258279746875644	0.40923046681194736
-0.49252176231250644	0.41820079142631905
-0.49246072715625644	0.4251344864750752
-0.49239969200000644	0.4299987788454336
-0.49233865684375644	0.43277087818984233
-0.49227762168750644	0.43343789559756996
-0.49221658653125644	0.4319970142805088
-0.49215555137500644	0.4284555217493002
-0.49209451621875644	0.42283068872440777
-0.49203348106250644	0.4151497902097735
-0.49197244590625644	0.4054499054260434
-0.49191141075000644	0.39377779258039897
-0.49185037559375644	0.3801896386708091
-0.49178934043750644	0.36475080386494346
-0.49172830528125644	0.34753555801368846
-0.49166727012500644	0.32862660429270646
-0.49160623496875644	0.30811487715685454
-0.49154519981250644	0.286098941391858
-0.49148416465625644	0.2626845742908273
-0.49142312950000644	0.23798439741092378
-0.49136209434375644	0.2121170631481454
-0.49130105918750644	0.1852069934010871
-0.49124002403125644	0.15738358093389931
-0.49117898887500644	0.12878064409981868
-0.49111795371875644	0.09953587580868817
-0.49105691856250644	0.0697899162157887
-0.49099588340625644	0.03968608660615793
-0.49093484825000644	0.009369366839107027
-0.49087381309375644	-0.021014204286115657
-0.49081277793750644	-0.051318076668719396
-0.49075174278125644	-0.08139609602401116
-0.49069070762500644	-0.1111031098930833
-0.49062967246875644	-0.14029567157808528
-0.49056863731250644	-0.16883258036752952
-0.49050760215625644	-0.19657594198113204
-0.49044656700000644	-0.22339141555553782
-0.49038553184375644	-0.2491489775548328
-0.49032449668750644	-0.2737238121315563
-0.49026346153125644	-0.2969964597313563
-0.49020242637500644	-0.31885375811191846
-0.49014139121875644	-0.3391892069677908
-0.49008035606250644	-0.35790353112649725
-0.49001932090625644	-0.37490515586172907
-0.48995828575000644	-0.3901106277181008
-0.48989725059375644	-0.40344510521699384
-0.48983621543750644	-0.41484254489465
-0.48977518028125644	-0.4242462027708923
-0.48971414512500644	-0.43160884889896745
-0.48965310996875644	-0.4368929658870893
-0.48959207481250644	-0.44007092992155966
-0.48953103965625644	-0.4411252281661573
-0.48947000450000644	-0.440048498690987
-0.48940896934375644	-0.43684351806535915
-0.48934793418750644	-0.4315233007927511
-0.48928689903125644	-0.42411098261747593
-0.48922586387500644	-0.4146397114260398
-0.48916482871875644	-0.4031525150749213
-0.48910379356250644	-0.3897021148701931
-0.48904275840625644	-0.3743506411331569
-0.48898172325000644	-0.35716937452828496
-0.48892068809375644	-0.3382384120122951
-0.48885965293750644	-0.3176462579135577
-0.48879861778125644	-0.29548945089625156
-0.48873758262500644	-0.27187208399439317
-0.48867654746875644	-0.24690528965748118
-0.48861551231250644	-0.22070677050058746
-0.48855447715625644	-0.19340021555219386
-0.48849344200000644	-0.1651146575575879
-0.48843240684375644	-0.13598395637982488
-0.48837137168750644	-0.10614613267063162
-0.48831033653125644	-0.07574263582433287
-0.48824930137500644	-0.0449177672982558
-0.48818826621875644	-0.01381797143952435
-0.48812723106250644	0.017408895112675786
-0.48806619590625644	0.048614266999426475
-0.48800516075000644	0.07964955463024621
-0.48794412559375644	0.1103668005901955
-0.48788309043750644	0.14061956032994838
-0.48782205528125644	0.17026342568957006
-0.48776102012500644	0.19915672325822462
-0.48769998496875644	0.22716139576511496
-0.48763894981250644	0.25414339780089573
-0.48757791465625644	0.2799734888404336
-0.48751687950000644	0.3045278526422764
-0.48745584434375644	0.327688641852631
-0.48739480918750644	0.34934459097339804
-0.48733377403125644	0.3693914324107568
-0.48727273887500644	0.3877326468276807
-0.48721170371875644	0.40427970136694724
-0.48715066856250644	0.4189524532081947
-0.48708963340625644	0.43167983716616654
-0.48702859825000644	0.4423998780836146
-0.48696756309375644	0.4510600995835966
-0.48690652793750644	0.45761792467042556
-0.48684549278125644	0.4620406675530661
-0.48678445762500644	0.4643058269347867
-0.48672342246875644	0.4644011745839573
-0.48666238731250644	0.4623247917605739
-0.48660135215625644	0.4580851284295387
-0.48654031700000644	0.4517009162339881
-0.48647928184375644	0.4432011398329872
-0.48641824668750644	0.4326248558814674
-0.48635721153125644	0.4200210501445916
-0.48629617637500644	0.40544838552321943
-0.48623514121875644	0.3889749109595407
-0.48617410606250644	0.37067782641106334
-0.48611307090625644	0.35064297692838986
-0.48605203575000644	0.3289645628665771
-0.48599100059375644	0.3057446923325213
-0.48592996543750644	0.28109279090576184
-0.48586893028125644	0.25512519054064536
-0.48580789512500644	0.2279645400103312
-0.48574685996875644	0.19973923082379577
-0.48568582481250644	0.17058273243712244
-0.48562478965625644	0.14063302329045999
-0.48556375450000644	0.11003193851583803
-0.48550271934375644	0.07892440509065254
-0.48544168418750644	0.04745784634959262
-0.48538064903125644	0.015781442512663155
-0.48531961387500644	-0.015954620473184196
-0.48525857871875644	-0.04759980142455642
-0.48519754356250644	-0.07900394996625378
-0.48513650840625644	-0.11001808395721926
-0.48507547325000644	-0.14049503517251663
-0.48501443809375644	-0.17029007528963738
-0.48495340293750644	-0.19926185813831607
-0.48489236778125644	-0.2272729011980666
-0.48483133262500644	-0.25419015520976007
-0.48477029746875644	-0.27988599013892773
-0.48470926231250644	-0.304238463349027
-0.48464822715625644	-0.3271320585063616
-0.48458719200000644	-0.3484582639394499
-0.48452615684375644	-0.3681159748490754
-0.48446512168750644	-0.38601219406198345
-0.48440408653125644	-0.40206220932233694
-0.48434305137500644	-0.41619016937490233
-0.48428201621875644	-0.42832952800154134
-0.48422098106250644	-0.43842312979697573
-0.48415994590625644	-0.44642364159486775
-0.48409891075000644	-0.4522938415352999
-0.48403787559375644	-0.4560066272641808
-0.48397684043750644	-0.45754525547882274
-0.48391580528125644	-0.4569034662901919
-0.48385477012500644	-0.4540853871706031
-0.48379373496875644	-0.44910562708003726
-0.48373269981250644	-0.4419891792915838
-0.48367166465625644	-0.432771263853516
-0.48361062950000644	-0.4214972215889399
-0.48354959434375644	-0.40822226071788925
-0.48348855918750644	-0.39301120746849566
-0.48342752403125644	-0.3759381830979725
-0.48336648887500644	-0.3570862792879749
-0.48330545371875644	-0.3365471527839232
-0.48324441856250644	-0.3144205124878399
-0.48318338340625644	-0.29081379535682417
-0.48312234825000644	-0.2658415286398553
-0.48306131309375644	-0.23962473956313649
-0.48300027793750644	-0.21229059835155503
-0.48293924278125644	-0.18397153597586785
-0.48287820762500644	-0.1548047393765074
-0.48281717246875644	-0.12493159653499468
-0.48275613731250644	-0.09449674602594253
-0.48269510215625644	-0.06364762464633338
-0.48263406700000644	-0.03253369961678499
-0.48257303184375644	-0.0013056045626555868
-0.48251199668750644	0.02988536519015757
-0.48245096153125644	0.060888081899112254
-0.48238992637500644	0.09155247761093216
-0.48232889121875644	0.12172993950594956
-0.48226785606250644	0.15127419880743848
-0.48220682090625644	0.1800422617499357
-0.48214578575000644	0.20789461588060013
-0.48208475059375644	0.23469628258454653
-0.48202371543750644	0.2603174250992375
-0.48196268028125644	0.28463375501710075
-0.48190164512500644	0.3075274320273842
-0.48184060996875644	0.32888740468506367
-0.48177957481250644	0.3486100762500832
-0.48171853965625644	0.36659974256927147
-0.48165750450000644	0.3827691218035198
-0.48159646934375644	0.39703973597546377
-0.48153543418750644	0.4093422212614141
-0.48147439903125644	0.41961687915480617
-0.48141336387500644	0.42781374293762536
-0.48135232871875644	0.43389292234508936
-0.48129129356250644	0.4378248372526636
-0.48123025840625644	0.4395902825186609
-0.48116922325000644	0.4391805875095888
-0.48110818809375644	0.4365976246780027
-0.48104715293750644	0.43185382250348914
-0.48098611778125644	0.42497212888627256
-0.48092508262500644	0.4159858464443647
-0.48086404746875644	0.4049385356198521
-0.48080301231250644	0.3918837986244012
-0.48074197715625644	0.376884960145172
-0.48068094200000644	0.3600148784067237
-0.48061990684375644	0.3413555006502075
-0.48055887168750644	0.3209974781725397
-0.48049783653125644	0.2990398149758693
-0.48043680137500644	0.2755893141090245
-0.48037576621875644	0.25076003991129514
-0.48031473106250644	0.22467283451922865
-0.48025369590625644	0.1974548030520259
-0.48019266075000644	0.1692384648211677
-0.48013162559375644	0.14016129070742867
-0.48007059043750644	0.11036515928579534
-0.48000955528125644	0.07999532645677698
-0.47994852012500644	0.049199957189302805
-0.47988748496875644	0.018129493553270513
-0.47982644981250644	-0.013064314243516282
-0.47976541465625644	-0.044229071297356516
-0.47970437950000644	-0.07521230288696729
-0.47964334434375644	-0.10586238003169351
-0.47958230918750644	-0.13602928474537712
-0.47952127403125644	-0.16556511440369137
-0.47946023887500644	-0.1943250450963622
-0.47939920371875644	-0.2221678880346459
-0.47933816856250644	-0.2489568301226346
-0.47927713340625644	-0.27456014316514926
-0.47921609825000644	-0.29885161489057943
-0.47915506309375644	-0.32171155781015226
-0.47909402793750644	-0.3430270048400546
-0.47903299278125644	-0.3626923718536514
-0.47897195762500644	-0.38061024592260595
-0.47891092246875644	-0.3966914035596365
-0.47884988731250644	-0.4108555718293361
-0.47878885215625644	-0.4230318083838664
-0.47872781700000644	-0.4331586594112105
-0.47866678184375644	-0.4411846519001044
-0.47860574668750644	-0.44706848091696855
-0.47854471153125644	-0.4507791882997023
-0.47848367637500644	-0.45229638165019803
-0.47842264121875644	-0.4516102915536416
-0.47836160606250644	-0.4487218377956934
-0.47830057090625644	-0.44364265723208435
-0.47823953575000644	-0.4363950193030141
-0.47817850059375644	-0.4270117341466886
-0.47811746543750644	-0.4155360316026894
-0.47805643028125644	-0.40202131084398773
-0.47799539512500644	-0.3865309111831368
-0.47793435996875644	-0.36913782520726973
-0.47787332481250644	-0.3499243356519934
-0.47781228965625644	-0.32898160567448576
-0.47775125450000644	-0.30640927165962084
-0.47769021934375644	-0.2823149633861121
-0.47762918418750644	-0.25681377003895195
-0.47756814903125644	-0.23002767691266404
-0.47750711387500644	-0.2020849922476123
-0.47744607871875644	-0.17311984926622365
-0.47738504356250644	-0.14327121140678878
-0.47732400840625644	-0.11268261935174262
-0.47726297325000644	-0.08150134009922255
-0.47720193809375644	-0.049877350204175025
-0.47714090293750644	-0.017963254502040664
-0.47707986778125644	0.014087084122461692
-0.47701883262500644	0.046119020082011464
-0.47695779746875644	0.07797764433837459
-0.47689676231250644	0.10950910318336682
-0.47683572715625644	0.14056083465816915
-0.47677469200000644	0.17098241641170017
-0.47671365684375644	0.20062664391002058
-0.47665262168750644	0.22934972142807913
-0.47659158653125644	0.25701226552754736
-0.47653055137500644	0.2834801339944589
-0.47646951621875644	0.3086246113940208
-0.47640848106250644	0.33232344376393697
-0.47634744590625644	0.35446135578938964
-0.47628641075000644	0.37493043514150176
-0.47622537559375644	0.3936308455592245
-0.47616434043750644	0.41047130513564767
-0.47610330528125644	0.42536939346845687
-0.47604227012500644	0.438252075165939
-0.47598123496875644	0.449056128366734
-0.47592019981250644	0.45772820698271394
-0.47585916465625644	0.4642253628574779
-0.47579812950000644	0.4685151751954445
-0.47573709434375644	0.47057579946522893
-0.47567605918750644	0.4703962692658761
-0.47561502403125644	0.46797643655380117
-0.47555398887500644	0.4633269709051448
-0.47549295371875644	0.4564693958348964
-0.47543191856250644	0.44743592110392905
-0.47537088340625644	0.4362692876193677
-0.47530984825000644	0.42302264904655057
-0.47524881309375644	0.40775920583046005
-0.47518777793750644	0.39055196157243705
-0.47512674278125644	0.3714834141445151
-0.47506570762500644	0.35064506665265116
-0.47500467246875644	0.32813702332195527
-0.47494363731250644	0.3040675934856126
-0.47488260215625644	0.27855261807050863
-0.47482156700000644	0.25171498141886567
-0.47476053184375644	0.22368413081430427
-0.47469949668750644	0.19459515247244896
-0.47463846153125644	0.16458847522885872
-0.47457742637500644	0.1338089838422941
-0.47451639121875644	0.10240520111012784
-0.47445535606250644	0.07052896709816146
-0.47439432090625644	0.03833428484664273
-0.47433328575000644	0.005976692271827426
-0.47427225059375644	-0.026387260715453335
-0.47421121543750644	-0.0586010829881283
-0.47415018028125644	-0.09050903841567082
-0.47408914512500644	-0.12195670024891432
-0.47402810996875644	-0.15279193144325887
-0.47396707481250644	-0.18286559029430222
-0.47390603965625644	-0.21203212457630413
-0.47384500450000644	-0.240150397351977
-0.47378396934375644	-0.26708441609263306
-0.47372293418750644	-0.2927038535759971
-0.47366189903125644	-0.3168847606945915
-0.47360086387500644	-0.3395102613862185
-0.47353982871875644	-0.3604709453655292
-0.47347879356250644	-0.3796655519072421
-0.47341775840625644	-0.3970013869263778
-0.47335672325000644	-0.4123948121386748
-0.47329568809375644	-0.4257716743119124
-0.47323465293750644	-0.43706757885671726
-0.47317361778125644	-0.44622834500814756
-0.47311258262500644	-0.45321015004231263
-0.47305154746875644	-0.457979821492396
-0.47299051231250644	-0.46051498462904744
-0.47292947715625644	-0.4608041334981392
-0.47286844200000644	-0.4588467713481194
-0.47280740684375644	-0.4546533533174819
-0.47274637168750644	-0.4482452388494598
-0.47268533653125644	-0.43965463955027695
-0.47262430137500644	-0.42892443353645165
-0.47256326621875644	-0.41610791612526704
-0.47250223106250644	-0.4012686644204239
-0.47244119590625644	-0.38448008373443643
-0.47238016075000644	-0.3658251327439545
-0.47231912559375644	-0.345395979781038
-0.47225809043750644	-0.323293366635024
-0.47219705528125644	-0.2996263089122463
-0.47213602012500644	-0.2745115262748499
-0.47207498496875644	-0.24807273864335727
-0.47201394981250644	-0.22044020755045207
-0.47195291465625644	-0.1917501409708775
-0.47189187950000644	-0.1621438099021156
-0.47183084434375644	-0.1317670125049791
-0.47176980918750644	-0.10076946403832684
-0.47170877403125644	-0.06930380928419998
-0.47164773887500644	-0.03752502728806665
-0.47158670371875644	-0.005589707465823843
-0.47152566856250644	0.026344826638829248
-0.47146463340625644	0.058121173385846346
-0.47140359825000644	0.08958279092707956
-0.47134256309375644	0.12057457975301547
-0.47128152793750644	0.1509436778629369
-0.47122049278125644	0.18054044958251853
-0.47115945762500644	0.20921879501177182
-0.47109842246875644	0.23683726976130404
-0.47103738731250644	0.2632596120031096
-0.47097635215625644	0.28835523649931083
-0.47091531700000644	0.312000325639208
-0.47085428184375644	0.3340779850664518
-0.47079324668750644	0.354479034189674
-0.47073221153125644	0.37310261108361914
-0.47067117637500644	0.3898564879748462
-0.47061014121875644	0.4046576584139036
-0.47054910606250644	0.4174326969919519
-0.47048807090625644	0.42811817314292355
-0.47042703575000644	0.4366608951243572
