Time	Frequency
-0.5000356272812496	-0.23672428409571386
-0.4999745921249996	-0.21848654185311078
-0.4999135569687496	-0.199481472157062
-0.4998525218124996	-0.1797724201603017
-0.4997914866562496	-0.15942513688517548
-0.4997304514999996	-0.13850749940976323
-0.4996694163437496	-0.11708947017846903
-0.4996083811874996	-0.09524265664760925
-0.4995473460312496	-0.07304015264969733
-0.4994863108749996	-0.05055634863703007
-0.4994252757187496	-0.027866602676839415
-0.4993642405624996	-0.005046999362992217
-0.4993032054062496	0.01782591746660753
-0.4992421702499996	0.040675264372219126
-0.4991811350937496	0.06342436867494185
-0.4991200999374996	0.08599673673822925
-0.4990590647812496	0.10831639004680027
-0.4989980296249996	0.13030835076631012
-0.4989369944687496	0.15189848708845194
-0.4988759593124996	0.17301408266669163
-0.4988149241562496	0.1935840689854601
-0.4987538889999996	0.213538992849118
-0.4986928538437496	0.23281158499837162
-0.4986318186874996	0.251336854742086
-0.4985707835312496	0.2690521570854907
-0.4985097483749996	0.2858977018341761
-0.4984487132187496	0.3018165584202505
-0.4983876780624996	0.31675483929133513
-0.4983266429062496	0.33066202290722974
-0.4982656077499996	0.34349101305937324
-0.4982045725937496	0.3551983099916605
-0.4981435374374996	0.36574420146465986
-0.4980825022812496	0.3750929043010146
-0.4980214671249996	0.38321260951947905
-0.4979604319687496	0.39007567303934115
-0.4978993968124996	0.395658694630305
-0.4978383616562496	0.39994255769880566
-0.4977773264999996	0.4029125486591308
-0.4977162913437496	0.4045583689897087
-0.4976552561874996	0.4048742028251029
-0.4975942210312496	0.40385871634399756
-0.4975331858749996	0.40151506887601535
-0.4974721507187496	0.3978509204704988
-0.4974111155624996	0.3928783827377062
-0.4973500804062496	0.3866139986582301
-0.4972890452499996	0.37907868065534367
-0.4972280100937496	0.3702976459265299
-0.4971669749374996	0.3603003242147348
-0.4971059397812496	0.349120272649777
-0.4970449046249996	0.3367950532204873
-0.4969838694687496	0.3233661033189473
-0.4969228343124996	0.30887863313736474
-0.4968617991562496	0.2933813968600525
-0.4968007639999996	0.2769266223682778
-0.4967397288437496	0.25956978697179833
-0.4966786936874996	0.24136937039741208
-0.4966176585312496	0.2223868236715022
-0.4965566233749996	0.20268619170555469
-0.4964955882187496	0.18233394542968936
-0.4964345530624996	0.1613988597307212
-0.4963735179062496	0.1399516214511342
-0.4963124827499996	0.11806467911339998
-0.4962514475937496	0.0958120332532975
-0.4961904124374996	0.07326887529855014
-0.4961293772812496	0.05051141588736529
-0.4960683421249996	0.027616653566742193
-0.4960073069687496	0.004661959620971574
-0.4959462718124996	-0.018274985031349774
-0.4958852366562496	-0.04111654476648484
-0.4958242014999996	-0.06378551029799538
-0.4957631663437496	-0.08620511967539049
-0.4957021311874996	-0.10829947051774033
-0.4956410960312496	-0.1299938502407759
-0.4955800608749996	-0.1512147931426956
-0.4955190257187496	-0.1718904218491197
-0.4954579905624996	-0.19195082892450138
-0.4953969554062496	-0.21132805475870292
-0.4953359202499996	-0.22995651341015252
-0.4952748850937496	-0.247773182862314
-0.4952138499374996	-0.26471772326155557
-0.4951528147812496	-0.2807328480925745
-0.4950917796249996	-0.29576433979223804
-0.4950307444687496	-0.30976137436625434
-0.4949697093124996	-0.3226766661783904
-0.4949086741562496	-0.334466530903217
-0.4948476389999996	-0.3450911785649481
-0.4947866038437496	-0.35451480002118363
-0.4947255686874996	-0.3627056031501214
-0.4946645335312496	-0.3696360583609025
-0.4946034983749996	-0.37528292996327184
-0.4945424632187496	-0.37962731359518614
-0.4944814280624996	-0.3826548033664698
-0.4944203929062496	-0.3843554509777218
-0.4943593577499996	-0.38472384597493664
-0.4942983225937496	-0.3837591436285651
-0.4942372874374996	-0.38146502743595573
-0.4941762522812496	-0.3778497494230443
-0.4941152171249996	-0.3729260640683677
-0.4940541819687496	-0.3667112021192917
-0.4939931468124996	-0.35922683081474294
-0.4939321116562496	-0.3504989314447198
-0.4938710764999996	-0.34055777661385855
-0.4938100413437496	-0.3294377869495855
-0.4937490061874996	-0.31717740439386927
-0.4936879710312496	-0.30381902241457126
-0.4936269358749996	-0.28940876925620646
-0.4935659007187496	-0.2739964064041571
-0.4935048655624996	-0.2576351238983509
-0.4934438304062496	-0.24038139506335718
-0.4933827952499996	-0.22229476455077912
-0.4933217600937496	-0.20343760342946407
-0.4932607249374996	-0.183875026492523
-0.4931996897812496	-0.16367449920550547
-0.4931386546249996	-0.14290572668686255
-0.4930776194687496	-0.12164043261613687
-0.4930165843124996	-0.09995198149976048
-0.4929555491562496	-0.07791525458160213
-0.4928945139999996	-0.05560636817765384
-0.4928334788437496	-0.03310238105078462
-0.4927724436874996	-0.010481022072832372
-0.4927114085312496	0.012179489540980758
-0.4926503733749996	0.03480081161620212
-0.4925893382187496	0.057304733211643755
-0.4925283030624996	0.07961333233887084
-0.4924672679062496	0.10164940724740398
-0.4924062327499996	0.12333663861524113
-0.4923451975937496	0.1445998387221961
-0.4922841624374996	0.1653652887144268
-0.4922231272812496	0.18556092652226724
-0.4921620921249996	0.20511661904859305
-0.4921010569687496	0.22396439828515965
-0.4920400218124996	0.2420386944274488
-0.4919789866562496	0.2592765656631774
-0.4919179514999996	0.2756179340660066
-0.4918569163437496	0.29100572325526264
-0.4917958811874996	0.30538614609689857
-0.4917348460312496	0.31870886554462985
-0.4916738108749996	0.33092707468205834
-0.4916127757187496	0.3419978243660223
-0.4915517405624996	0.35188205258417
-0.4914907054062496	0.3605447136457823
-0.4914296702499996	0.3679550161863008
-0.4913686350937496	0.37408639633331975
-0.4913075999374996	0.3789166795281116
-0.4912465647812496	0.38242818237297277
-0.4911855296249996	0.384607698980248
-0.4911244944687496	0.3854466178062964
-0.4910634593124996	0.38494092344700964
-0.4910024241562496	0.38309121655057454
-0.4909413889999996	0.3799027163672834
-0.4908803538437496	0.3753852404465318
-0.4908193186874996	0.3695531884311623
-0.4907582835312496	0.36242547373690515
-0.4906972483749996	0.35402547747945895
-0.4906362132187496	0.3443809654749422
-0.4905751780624996	0.33352399782189934
-0.4905141429062496	0.32149081131916846
-0.4904531077499996	0.30832171226233657
-0.4903920725937496	0.29406093920916676
-0.4903310374374996	0.278756492023164
-0.4902700022812496	0.2624600014189383
-0.4902089671249996	0.24522652483739316
-0.4901479319687496	0.22711438964980094
-0.4900868968124996	0.2081849509042628
-0.4900258616562496	0.18850244220349133
-0.4899648264999996	0.16813371181980416
-0.4899037913437496	0.14714796672503636
-0.4898427561874996	0.12561666332111324
-0.4897817210312496	0.10361310562749634
-0.4897206858749996	0.08121226953195224
-0.4896596507187496	0.058490598460970114
-0.4895986155624996	0.035525636161755435
-0.4895375804062496	0.012395810674854811
-0.4894765452499996	-0.010819785626630616
-0.4894155100937496	-0.034041779455578035
-0.4893544749374996	-0.05719066903857963
-0.4892934397812496	-0.08018717399926849
-0.4892324046249996	-0.1029525044023003
-0.4891713694687496	-0.12540856575786535
-0.4891103343124996	-0.1474783401030073
-0.4890492991562496	-0.1690860144848304
-0.4889882639999996	-0.1901573640564753
-0.4889272288437496	-0.2106199349896223
-0.4888661936874996	-0.23040333833738771
-0.4888051585312496	-0.24943942319112222
-0.4887441233749996	-0.26766260723022534
-0.4886830882187496	-0.2850100667380831
-0.4886220530624996	-0.3014218455843041
-0.4885610179062496	-0.31684130102720465
-0.4884999827499996	-0.3312150474206049
-0.4884389475937496	-0.3444932999126238
-0.4883779124374996	-0.3566300132748127
-0.4883168772812496	-0.36758297934777634
-0.4882558421249996	-0.3773140917771804
-0.4881948069687496	-0.3857893470100796
-0.4881337718124996	-0.3929790720574582
-0.4880727366562496	-0.39885797256358435
-0.4880117014999996	-0.4034052227257086
-0.4879506663437496	-0.4066045700826986
-0.4878896311874996	-0.4084443633114465
-0.4878285960312496	-0.40891761316717296
-0.4877675608749996	-0.40802200022145835
-0.4877065257187496	-0.40575991470725803
-0.4876454905624996	-0.4021384211196269
-0.4875844554062496	-0.3971692506485624
-0.4875234202499996	-0.3908687638979174
-0.4874623850937496	-0.38325789646838276
-0.4874013499374996	-0.37436208260024445
-0.4873403147812496	-0.3642111674202705
-0.4872792796249996	-0.35283934827772395
-0.4872182444687496	-0.34028497335215446
-0.4871572093124996	-0.32659049910258625
-0.4870961741562496	-0.3118023218873279
-0.4870351389999996	-0.29597055445459947
-0.4869741038437496	-0.2791489733417659
-0.4869130686874996	-0.26139473455784457
-0.4868520335312496	-0.24276822446438612
-0.4867909983749996	-0.22333285249488288
-0.4867299632187496	-0.20315481836336377
-0.4866689280624996	-0.18230291330728438
-0.4866078929062496	-0.160848217479646
-0.4865468577499996	-0.13886397995243288
-0.4864858225937496	-0.11642523768819309
-0.4864247874374996	-0.09360860210731475
-0.4863637522812496	-0.0704920712699685
-0.4863027171249996	-0.04715462510915864
-0.4862416819687496	-0.023676077261292585
-0.4861806468124996	-0.0001367202581320096
-0.4861196116562496	0.023382901397167526
-0.4860585764999996	0.04680231116572264
-0.4859975413437496	0.07004134730028426
-0.4859365061874996	0.09302041139197924
-0.4858754710312496	0.11566087370996656
-0.4858144358749996	0.1378851277789486
-0.4857534007187496	0.1596170725733028
-0.4856923655624996	0.18078225840411585
-0.4856313304062496	0.201308124032993
-0.4855702952499996	0.2211244058367819
-0.4855092600937496	0.24016312375602622
-0.4854482249374996	0.25835906772971495
-0.4853871897812496	0.2756499063410895
-0.4853261546249996	0.2919763415026394
-0.4852651194687496	0.30728248444400286
-0.4852040843124996	0.32151588977032536
-0.4851430491562496	0.33462782254950146
-0.4850820139999996	0.3465734012113956
-0.4850209788437496	0.35731176210914983
-0.4849599436874996	0.3668062139851078
-0.4848989085312496	0.3750243179119669
-0.4848378733749996	0.3819380701722683
-0.4847768382187496	0.3875239552554239
-0.4847158030624996	0.39176302416529385
-0.4846547679062496	0.39464099906838546
-0.4845937327499996	0.3961483000962779
-0.4845326975937496	0.39628006558781687
-0.4844716624374996	0.39503620744786616
-0.4844106272812496	0.3924213885348753
-0.4843495921249996	0.38844500873251075
-0.4842885569687496	0.3831211907165842
-0.4842275218124996	0.37646870692693574
-0.4841664866562496	0.3685109524020418
-0.4841054514999996	0.35927582587558893
-0.4840444163437496	0.34879565883962677
-0.4839833811874996	0.33710711732317944
-0.4839223460312496	0.324251030764274
-0.4838613108749996	0.3102723109918334
-0.4838002757187496	0.29521974568945886
-0.4837392405624996	0.2791458722379806
-0.4836782054062496	0.26210677057904663
-0.4836171702499996	0.24416186972212797
-0.4835561350937496	0.2253737864437585
-0.4834950999374996	0.20580803449010737
-0.4834340647812496	0.18553286067091873
-0.4833730296249996	0.16461900194288087
-0.4833119944687496	0.14313938878048668
-0.4832509593124996	0.12116897069830068
-0.4831899241562496	0.09878442572285968
-0.4831288889999996	0.07606382427885278
-0.4830678538437496	0.053086505313285744
-0.4830068186874996	0.029932660468642746
-0.4829457835312496	0.0066831429917443745
-0.4828847483749996	-0.01658083191845407
-0.4828237132187496	-0.03977802866745555
-0.4827626780624996	-0.06282734529768629
-0.4827016429062496	-0.085648241269159
-0.4826406077499996	-0.1081608859035908
-0.4825795725937496	-0.13028657118727144
-0.4825185374374996	-0.15194784614079906
-0.4824575022812496	-0.17306884761680433
-0.4823964671249996	-0.1935756671363574
-0.4823354319687496	-0.2133963797502335
-0.4822743968124996	-0.23246150550372233
-0.4822133616562496	-0.2507041682439869
-0.4821523264999996	-0.2680602998909288
-0.4820912913437496	-0.2844689199891688
-0.4820302561874996	-0.2998723275434356
-0.4819692210312496	-0.3142162892230747
-0.4819081858749996	-0.3274502584049004
-0.4818471507187496	-0.3395275291361331
-0.4817861155624996	-0.35040539228972584
-0.4817250804062496	-0.36004533979299924
-0.4816640452499996	-0.3684131263801098
-0.4816030100937496	-0.3754789391044442
-0.4815419749374996	-0.3812175009582546
-0.4814809397812496	-0.385608142915799
-0.4814199046249996	-0.3886348754823671
-0.4813588694687496	-0.3902864761376121
-0.4812978343124996	-0.39055651001908637
-0.4812367991562496	-0.3894433393582612
-0.4811757639999996	-0.38695016782938035
-0.4811147288437496	-0.3830850089483905
-0.4810536936874996	-0.3778606567853153
-0.4809926585312496	-0.3712946593622954
-0.4809316233749996	-0.36340925649003186
-0.4808705882187496	-0.3542312832746377
-0.4808095530624996	-0.3437921241744756
-0.4807485179062496	-0.33212755026465657
-0.4806874827499996	-0.3192776426783629
-0.4806264475937496	-0.30528664410310963
-0.4805654124374996	-0.29020276325889194
-0.4805043772812496	-0.27407810350460676
-0.4804433421249996	-0.2569683885468831
-0.4803823069687496	-0.23893279284087007
-0.4803212718124996	-0.22003381066292813
-0.4802602366562496	-0.20033692771458228
-0.4801992014999996	-0.17991046436564273
-0.4801381663437496	-0.15882535194238315
-0.4800771311874996	-0.13715480678703695
-0.4800160960312496	-0.1149741688782077
-0.4799550608749996	-0.092360588910937
-0.4798940257187496	-0.06939278098327854
-0.4798329905624996	-0.04615070148639609
-0.4797719554062496	-0.02271534276487568
-0.4797109202499996	0.0008315424007288207
-0.4796498850937496	0.02440789412293723
-0.4795888499374996	0.047931359731508034
-0.4795278147812496	0.07131977293293504
-0.4794667796249996	0.09449148595781924
-0.4794057444687496	0.11736537667685419
-0.4793447093124996	0.13986146075886738
-0.4792836741562496	0.16190100318405837
-0.4792226389999996	0.18340673481685002
-0.4791616038437496	0.20430329388670712
-0.4791005686874996	0.22451736237545233
-0.4790395335312496	0.24397797200565768
-0.4789784983749996	0.2626166870238831
-0.4789174632187496	0.28036800170579496
-0.4788564280624996	0.29716939728741676
-0.4787953929062496	0.31296158595693996
-0.4787343577499996	0.3276889030731999
-0.4786733225937496	0.3412992527580001
-0.4786122874374996	0.35374441763480674
-0.4785512522812496	0.364980268345435
-0.4784902171249996	0.3749668301275806
-0.4784291819687496	0.38366845662251825
-0.4783681468124996	0.391053988211015
-0.4783071116562496	0.3970968216968686
-0.4782460764999996	0.40177502241253193
-0.4781850413437496	0.4050714090542632
-0.4781240061874996	0.4069736026494274
-0.4780629710312496	0.40747409169137033
-0.4780019358749996	0.40657023277597937
-0.4779409007187496	0.40426429277916776
-0.4778798655624996	0.400563426606941
-0.4778188304062496	0.3954796519654798
-0.4777577952499996	0.38902982980153855
-0.4776967600937496	0.3812355780109937
-0.4776357249374996	0.3721232323180224
-0.4775746897812496	0.361723731040405
-0.4775136546249996	0.35007251101102527
-0.4774526194687496	0.33720942204154736
-0.4773915843124996	0.32317851774592266
-0.4773305491562496	0.3080279902516221
-0.4772695139999996	0.2918099556482119
-0.4772084788437496	0.27458023405551174
-0.4771474436874996	0.2563982744438343
-0.4770864085312496	0.23732683327267645
-0.4770253733749996	0.21743178835337298
-0.4769643382187496	0.19678197457798974
-0.4769033030624996	0.17544885461240997
-0.4768422679062496	0.15350630790117123
-0.4767812327499996	0.13103038989658566
-0.4767201975937496	0.10809906609555586
-0.4766591624374996	0.0847918863579363
-0.4765981272812496	0.06118977612872016
-0.4765370921249996	0.03737474076786479
-0.4764760569687496	0.013429518969643046
-0.4764150218124996	-0.010562610891268054
-0.4763539866562496	-0.03451821912890896
-0.4762929514999996	-0.05835390920821612
-0.4762319163437496	-0.08198671612967927
-0.4761708811874996	-0.10533437155352174
-0.4761098460312496	-0.12831546132962005
-0.4760488108749996	-0.15084994383735953
-0.4759877757187496	-0.1728592617753634
-0.4759267405624996	-0.19426661064512502
-0.4758657054062496	-0.21499733505015572
-0.4758046702499996	-0.23497908975699042
-0.4757436350937496	-0.2541420940226296
-0.4756825999374996	-0.2724194363528876
-0.4756215647812496	-0.28974727036699166
-0.4755605296249996	-0.3060650437000288
-0.4754994944687496	-0.32131570812246896
-0.4754384593124996	-0.3354459260347889
-0.4753774241562496	-0.348406301899084
-0.4753163889999996	-0.3601514444922609
-0.4752553538437496	-0.3706402524430825
-0.4751943186874996	-0.3798360210981608
-0.4751332835312496	-0.38770647587935125
-0.4750722483749996	-0.3942240704733919
-0.4750112132187496	-0.3993659443152042
-0.4749501780624996	-0.4031140053727458
-0.4748891429062496	-0.40545511926911365
-0.4748281077499996	-0.4063810197595118
-0.4747670725937496	-0.40588839715084163
-0.4747060374374996	-0.40397894312312893
-0.4746450022812496	-0.4006592881585605
-0.4745839671249996	-0.39594101067960025
-0.4745229319687496	-0.3898406061130274
-0.4744618968124996	-0.382379414931024
-0.4744008616562496	-0.37358354969788055
-0.4743398264999996	-0.3634838241508212
-0.4742787913437496	-0.35211562112639694
-0.4742177561874996	-0.3395187968090052
-0.4741567210312496	-0.32573752287038127
-0.4740956858749996	-0.3108201343340344
-0.4740346507187496	-0.2948189870315021
-0.4739736155624996	-0.2777902415313838
-0.4739125804062496	-0.2597936746318028
-0.4738515452499996	-0.24089250669391096
-0.4737905100937496	-0.22115312835710668
-0.4737294749374996	-0.20064489426581644
-0.4736684397812496	-0.1794399083539322
-0.4736074046249996	-0.1576127020113707
-0.4735463694687496	-0.13524004657253058
-0.4734853343124996	-0.11240065055145249
-0.4734242991562496	-0.08917484716077106
-0.4733632639999996	-0.06564441343182335
-0.4733022288437496	-0.041892174717489856
-0.4732411936874996	-0.018001755843883322
-0.4731801585312496	0.005942648664998337
-0.4731191233749996	0.029856719020648213
-0.4730580882187496	0.05365613434444723
-0.4729970530624996	0.07725700659560976
-0.4729360179062496	0.10057611583513212
-0.4728749827499996	0.12353116290684081
-0.4728139475937496	0.14604119378996896
-0.4727529124374996	0.16802669979684734
-0.4726918772812496	0.18941008400600895
-0.4726308421249996	0.21011578602402003
-0.4725698069687496	0.23007062478264903
-0.4725087718124996	0.249204090366506
-0.4724477366562496	0.2674484617342614
-0.4723867014999996	0.28473921158225185
-0.4723256663437496	0.3010151084230776
-0.4722646311874996	0.3162184845865426
-0.4722035960312496	0.3302954694198401
-0.4721425608749996	0.34319610374376064
-0.4720815257187496	0.35487459334792515
-0.4720204905624996	0.3652894367981369
-0.4719594554062496	0.3744035566298372
-0.4718984202499996	0.38218449997098897
-0.4718373850937496	0.38860445758116313
-0.4717763499374996	0.393640439679513
-0.4717153147812496	0.3972743573993731
-0.4716542796249996	0.39949301477542215
-0.4715932444687496	0.4002882571631216
-0.4715322093124996	0.3996569416944623
-0.4714711741562496	0.39760094294383186
-0.4714101389999996	0.39412719829500414
-0.4713491038437496	0.3892476475609168
-0.4712880686874996	0.3829791900019174
-0.4712270335312496	0.3753436625913984
-0.4711659983749996	0.36636772751819474
-0.4711049632187496	0.35608279548897764
-0.4710439280624996	0.3445249316908798
-0.4709828929062496	0.33173469447458814
-0.4709218577499996	0.31775703333755234
-0.4708608225937496	0.30264111275154026
-0.4707997874374996	0.28644013235632887
-0.4707387522812496	0.2692111634393028
-0.4706777171249996	0.251014927147205
-0.4706166819687496	0.23191559341941287
-0.4705556468124996	0.2119805796162015
-0.4704946116562496	0.19128023463212565
-0.4704335764999996	0.16988768521565606
-0.4703725413437496	0.1478785621340366
-0.4703115061874996	0.12533062565234876
-0.4702504710312496	0.10232366201446934
-0.4701894358749996	0.07893909227446065
-0.4701284007187496	0.05525968342474347
-0.4700673655624996	0.031369309085660706
-0.4700063304062496	0.007352626543822784
-0.4699452952499996	-0.016705237031798905
-0.4698842600937496	-0.04071896268478474
-0.4698232249374996	-0.06460332529124478
-0.4697621897812496	-0.08827356919141367
-0.4697011546249996	-0.11164561359579891
