Time	Frequency
-0.500007867843749	1.2760810974530174e-24
-0.49994683268749895	1.2916017950324372e-24
-0.49988579753124895	1.3023691148785207e-24
-0.49982476237499895	1.308343806406706e-24
-0.49976372721874895	1.3095045851379108e-24
-0.49970269206249895	1.3058480567923656e-24
-0.49964165690624895	1.29738875333177e-24
-0.49958062174999895	1.2841592110445041e-24
-0.49951958659374895	1.2662097173818357e-24
-0.49945855143749895	1.2436081908325517e-24
-0.49939751628124895	1.2164399239853074e-24
-0.49933648112499895	1.1848072891180628e-24
-0.49927544596874895	1.1488293272001351e-24
-0.49921441081249895	1.1086412920736849e-24
-0.49915337565624895	1.0643942835866897e-24
-0.49909234049999895	1.0162544342984163e-24
-0.49903130534374895	9.644025795295441e-25
-0.49897027018749895	9.090334269586681e-25
-0.49890923503124895	8.503546792284536e-25
-0.49884819987499895	7.885867881238113e-25
-0.49878716471874895	7.239614250306334e-25
-0.49872612956249895	6.567210899154943e-25
-0.49866509440624895	5.87118301768893e-25
-0.49860405924999895	5.1541405638300765e-25
-0.49854302409374895	4.418775738455575e-25
-0.49848198893749895	3.667847554733615e-25
-0.49842095378124895	2.904174002236459e-25
-0.49835991862499895	2.1306222467588842e-25
-0.49829888346874895	1.3500937700741777e-25
-0.49823784831249895	5.655198501939689e-26
-0.49817681315624895	-2.2015512421387084e-26
-0.49811577799999895	-1.0039826257686463e-25
-0.49805474284374895	-1.7830189343142602e-25
-0.49799370768749895	-2.5543407935648873e-25
-0.49793267253124895	-3.315051064939213e-25
-0.49787163737499895	-4.062294022110015e-25
-0.49781060221874895	-4.793264989789265e-25
-0.49774956706249895	-5.505217684684212e-25
-0.49768853190624895	-6.195479274870103e-25
-0.49762749674999895	-6.861457953976131e-25
-0.49756646159374895	-7.500652809608939e-25
-0.49750542643749895	-8.110663061601216e-25
-0.49744439128124895	-8.689198540823409e-25
-0.49738335612499895	-9.234086423352815e-25
-0.49732232096874895	-9.743280990260913e-25
-0.49726128581249895	-1.021487104683645e-24
-0.49720025065624895	-1.0647085070418503e-24
-0.49713921549999895	-1.1038302496826215e-24
-0.49707818034374895	-1.1387054711252355e-24
-0.49701714518749895	-1.1692034014823475e-24
-0.49695611003124895	-1.1952098135188472e-24
-0.49689507487499895	-1.2166272244728188e-24
-0.49683403971874895	-1.2333756824418737e-24
-0.49677300456249895	-1.2453926631867369e-24
-0.49671196940624895	-1.252633523532015e-24
-0.49665093424999895	-1.255071740538938e-24
-0.49658989909374895	-1.2526987925694423e-24
-0.49652886393749895	-1.2455243846752979e-24
-0.49646782878124895	-1.2335763772684776e-24
-0.49640679362499895	-1.216900623967407e-24
-0.49634575846874895	-1.19556088806035e-24
-0.49628472331249895	-1.1696385526015198e-24
-0.49622368815624895	-1.1392323546362546e-24
-0.49616265299999895	-1.1044579981034444e-24
-0.49610161784374895	-1.0654477326288721e-24
-0.49604058268749895	-1.0223498847575189e-24
-0.49597954753124895	-9.75328214637241e-25
-0.49591851237499895	-9.245614758874383e-25
-0.49585747721874895	-8.70242552825542e-25
-0.49579644206249895	-8.12577861456488e-25
-0.49573540690624895	-7.51786577615888e-25
-0.49567437174999895	-6.880996851883196e-25
-0.49561333659374895	-6.217593971576149e-25
-0.49555230143749895	-5.530177748299447e-25
-0.49549126628124895	-4.821362837225409e-25
-0.49543023112499895	-4.093846439374317e-25
-0.49536919596874895	-3.350393859129867e-25
-0.49530816081249895	-2.5938365046864e-25
-0.49524712565624895	-1.8270535871172246e-25
-0.49518609049999895	-1.0529645593290485e-25
-0.49512505534374895	-2.7451937932174974e-26
-0.49506402018749895	5.0531651542905905e-26
-0.49500298503124895	1.283569127219755e-25
-0.49494194987499895	2.05727033950536e-25
-0.49488091471874895	2.8234672534184548e-25
-0.49481987956249895	3.5792349797114344e-25
-0.49475884440624895	4.321684835215546e-25
-0.49469780924999895	5.047979011752282e-25
-0.49463677409374895	5.755340075089188e-25
-0.49457573893749895	6.44105709632787e-25
-0.49451470378124895	7.102504693097744e-25
-0.49445366862499895	7.737145339182735e-25
-0.49439263346874895	8.342540962020643e-25
-0.49433159831249895	8.916366299184242e-25
-0.49427056315624895	9.456410649168372e-25
-0.49420952799999895	9.960592503377235e-25
-0.49414849284374895	1.042696508222718e-24
-0.49408745768749895	1.0853721764519698e-24
-0.49402642253124895	1.1239207781576939e-24
-0.49396538737499895	1.1581921715275573e-24
-0.49390435221874895	1.1880523991505213e-24
-0.49384331706249895	1.2133842118727659e-24
-0.49378228190624895	1.2340873076568761e-24
-0.49372124674999895	1.2500789997870068e-24
-0.49366021159374895	1.2612943406209548e-24
-0.49359917643749895	1.2676864191092138e-24
-0.49353814128124895	1.2692266449871152e-24
-0.49347710612499895	1.2659047333159942e-24
-0.49341607096874895	1.2577288248871373e-24
-0.49335503581249895	1.2447255064590073e-24
-0.49329400065624895	1.226939604329058e-24
-0.49323296549999895	1.2044341425274772e-24
-0.49317193034374895	1.1772900723355618e-24
-0.49311089518749895	1.145605908350447e-24
-0.49304986003124895	1.1094975524222376e-24
-0.49298882487499895	1.0690976119178888e-24
-0.49292778971874895	1.0245551008503778e-24
-0.49286675456249895	9.760349358904998e-25
-0.49280571940624895	9.237169490134953e-25
-0.49274468424999895	8.677957692775733e-25
-0.49268364909374895	8.084796631433769e-25
-0.49262261393749895	7.459898376047814e-25
-0.49256157878124895	6.805599031790387e-25
-0.49250054362499895	6.124344655540071e-25
-0.49243950846874895	5.418687911879527e-25
-0.49237847331249895	4.691274344359141e-25
-0.49231743815624895	3.9448327095153303e-25
-0.49225640299999895	3.182168754780876e-25
-0.49219536784374895	2.4061489515754117e-25
-0.49213433268749895	1.6196922974101516e-25
-0.49207329753124895	8.2576243730013e-26
-0.49201226237499895	2.7350495986270437e-27
-0.49195122721874895	-7.725337390626653e-26
-0.49189019206249895	-1.570868718146758e-25
-0.49182915690624895	-2.364640924447879e-25
-0.49176812174999895	-3.150850764074676e-25
-0.49170708659374895	-3.926522659049655e-25
-0.49164605143749895	-4.688721706483341e-25
-0.49158501628124895	-5.434561054788692e-25
-0.49152398112499895	-6.161212961318726e-25
-0.49146294596874895	-6.865920078213163e-25
-0.49140191081249895	-7.546007730152164e-25
-0.49134087565624895	-8.198891105966518e-25
-0.49127984049999895	-8.82208549286489e-25
-0.49121880534374895	-9.413219232301697e-25
-0.49115777018749895	-9.970038792784166e-25
-0.49109673503124895	-1.0490417331453222e-24
-0.49103569987499895	-1.0972367000108871e-24
-0.49097466471874895	-1.1414042933454189e-24
-0.49091362956249895	-1.181374954377746e-24
-0.49085259440624895	-1.216995085681524e-24
-0.49079155924999895	-1.2481273259572149e-24
-0.49073052409374895	-1.2746511942077631e-24
-0.49066948893749895	-1.296463539465414e-24
-0.49060845378124895	-1.3134789106361357e-24
-0.49054741862499895	-1.3256300236162965e-24
-0.49048638346874895	-1.3328677996605267e-24
-0.49042534831249895	-1.3351617645699437e-24
-0.49036431315624895	-1.3325000976497388e-24
-0.49030327799999895	-1.3248896342850365e-24
-0.49024224284374895	-1.3123559580996082e-24
-0.49018120768749895	-1.294943237210603e-24
-0.49012017253124895	-1.2727140807355248e-24
-0.49005913737499895	-1.2457493345811432e-24
-0.48999810221874895	-1.2141477747271862e-24
-0.48993706706249895	-1.178025721705464e-24
-0.48987603190624895	-1.137516637601079e-24
-0.48981499674999895	-1.092770619287238e-24
-0.48975396159374895	-1.0439538382725754e-24
-0.48969292643749895	-9.912479201202527e-25
-0.48963189128124895	-9.348492584820935e-25
-0.48957085612499895	-8.749682783751116e-25
-0.48950982096874895	-8.118286816311605e-25
-0.48944878581249895	-7.4566652516793165e-25
-0.48938775065624895	-6.767294255623622e-25
-0.48932671549999895	-6.052755637417175e-25
-0.48926568034374895	-5.315727507673393e-25
-0.48920464518749895	-4.558973676532084e-25
-0.48914361003124895	-3.7853332001360557e-25
-0.48908257487499895	-2.997711779163357e-25
-0.48902153971874895	-2.1990661313766985e-25
-0.48896050456249895	-1.3923972772472157e-25
-0.48889946940624895	-5.807387116666062e-26
-0.48883843424999895	2.3285897889543987e-26
-0.48877739909374895	1.0453355795966415e-25
-0.48871636393749895	1.853633417183188e-25
-0.48865532878124895	2.6547112590250946e-25
-0.48859429362499895	3.445554303821923e-25
-0.48853325846874895	4.223184044828491e-25
-0.48847222331249895	4.984672855820714e-25
-0.48841118815624895	5.727153707348725e-25
-0.48835015299999895	6.44783005598872e-25
-0.48828911784374895	7.143986752911826e-25
-0.48822808268749895	7.813003171826199e-25
-0.48816704753124895	8.45235914421796e-25
-0.48810601237499895	9.059645999244275e-25
-0.48804497721874895	9.632579332136295e-25
-0.48798394206249895	1.0169000541836818e-24
-0.48792290690624895	1.066689126402131e-24
-0.48786187174999895	1.1124380051666905e-24
-0.48780083659374895	1.1539745749318778e-24
-0.48773980143749895	1.1911428661406332e-24
-0.48767876628124895	1.2238034538527507e-24
-0.48761773112499895	1.251833943519016e-24
-0.48755669596874895	1.2751295704649745e-24
-0.48749566081249895	1.293603472918787e-24
-0.48743462565624895	1.3071871807395798e-24
-0.48737359049999895	1.3158307787419592e-24
-0.48731255534374895	1.3195030355080524e-24
-0.48725152018749895	1.3181917526194116e-24
-0.48719048503124895	1.3119036148273066e-24
-0.48712944987499895	1.3006642105407484e-24
-0.48706841471874895	1.2845180355826521e-24
-0.48700737956249895	1.2635282297019738e-24
-0.48694634440624895	1.237776372327645e-24
-0.48688530924999895	1.2073621896133942e-24
-0.48682427409374895	1.1724032010439276e-24
-0.48676323893749895	1.133034193448179e-24
-0.48670220378124895	1.0894068095938688e-24
-0.48664116862499895	1.0416889705180976e-24
-0.48658013346874895	9.90064066161417e-25
-0.48651909831249895	9.347305992315337e-25
-0.48645806315624895	8.759010936586984e-25
-0.48639702799999895	8.138014170470057e-25
-0.48633599284374895	7.486700831834669e-25
-0.48627495768749895	6.807570230433478e-25
-0.48621392253124895	6.103229012025022e-25
-0.48615288737499895	5.376380364991735e-25
-0.48609185221874895	4.629813431382629e-25
-0.48603081706249895	3.8663926523736076e-25
-0.48596978190624895	3.089047896684129e-25
-0.48590874674999895	2.300761895921329e-25
-0.48584771159374895	1.5045596344463999e-25
-0.48578667643749895	7.034965585505382e-26
-0.48572564128124895	-9.935264976079114e-27
-0.48566460612499895	-9.009059992290577e-26
-0.48560357096874895	-1.6980876946880267e-25
-0.48554253581249895	-2.487836104037203e-25
-0.48548150065624895	-3.267119039100509e-25
-0.48542046549999895	-4.032944313473789e-25
-0.48535943034374895	-4.782369865092778e-25
-0.48529839518749895	-5.512517374290897e-25
-0.48523736003124895	-6.220580588911864e-25
-0.48517632487499895	-6.903839041186623e-25
-0.48511528971874895	-7.5596663745301875e-25
-0.48505425456249895	-8.185540525511719e-25
-0.48499321940624895	-8.779055196686016e-25
-0.48493218424999895	-9.337926275957728e-25
-0.48487114909374895	-9.860004311473219e-25
-0.48481011393749895	-1.0343278724274908e-24
-0.48474907878124895	-1.0785888741735928e-24
-0.48468804362499895	-1.1186130048498647e-24
-0.48462700846874895	-1.1542458168960245e-24
-0.48456597331249895	-1.1853500328637763e-24
-0.48450493815624895	-1.2118055747452053e-24
-0.48444390299999895	-1.233510173211527e-24
-0.48438286784374895	-1.2503799197037325e-24
-0.48432183268749895	-1.2623494150461133e-24
-0.48426079753124895	-1.2693721017072946e-24
-0.48419976237499895	-1.2714204223893456e-24
-0.48413872721874895	-1.2684860073128872e-24
-0.48407769206249895	-1.2605796094404784e-24
-0.48401665690624895	-1.2477311367207935e-24
-0.48395562174999895	-1.229989542563134e-24
-0.48389458659374895	-1.2074226311622689e-24
-0.48383355143749895	-1.1801168107794007e-24
-0.48377251628124895	-1.1481767498780147e-24
-0.48371148112499895	-1.1117250522838332e-24
-0.48365044596874895	-1.0709017075922419e-24
-0.48358941081249895	-1.0258635739289311e-24
-0.48352837565624895	-9.767839037696443e-25
-0.48346734049999895	-9.238515222544875e-25
-0.48340630534374895	-8.672701060175086e-25
-0.48334527018749895	-8.072577394856115e-25
-0.48328423503124895	-7.440455127835834e-25
-0.48322319987499895	-6.778770443016775e-25
-0.48316216471874895	-6.09007779331378e-25
-0.48310112956249895	-5.377030926801061e-25
-0.48304009440624895	-4.642383656579404e-25
-0.48297905924999895	-3.8889740102560783e-25
-0.48291802409374895	-3.119709605134254e-25
-0.48285698893749895	-2.337566295470167e-25
-0.48279595378124895	-1.545567345044315e-25
-0.48273491862499895	-7.467761567591446e-26
-0.48267388346874895	5.571385976495649e-27
-0.48261284831249895	8.587963095040885e-26
-0.48255181315624895	1.6593591586044203e-25
-0.48249077799999895	2.45429825608885e-25
-0.48242974284374895	3.24052929565837e-25
-0.48236870768749895	4.015001552762278e-25
-0.48230767253124895	4.774705650205069e-25
-0.48224663737499895	5.516686846723953e-25
-0.48218560221874895	6.2380612139272295e-25
-0.48212456706249895	6.936017288122867e-25
-0.48206353190624895	7.607834411235123e-25
-0.48200249674999895	8.250892677430695e-25
-0.48194146159374895	8.862678559757647e-25
-0.48188042643749895	9.440798716284931e-25
-0.48181939128124895	9.982987924155988e-25
-0.48175835612499895	1.0487119625114469e-24
-0.48169732096874895	1.0951208959022078e-24
-0.48163628581249895	1.137342669811101e-24
-0.48157525065624895	1.1752105076365864e-24
-0.48151421549999895	1.2085739059721794e-24
-0.48145318034374895	1.2372999226812225e-24
-0.48139214518749895	1.2612733542034528e-24
-0.48133111003124895	1.280397143013223e-24
-0.48127007487499895	1.2945929265602396e-24
-0.48120903971874895	1.3038012488892051e-24
-0.48114800456249895	1.3079818456944025e-24
-0.48108696940624895	1.3071137867504083e-24
-0.48102593424999895	1.3011955741917663e-24
-0.48096489909374895	1.290245174605504e-24
-0.48090386393749895	1.2742999397769674e-24
-0.48084282878124895	1.253416514599933e-24
-0.48078179362499895	1.2276705576176757e-24
-0.48072075846874895	1.1971565506473356e-24
-0.48065972331249895	1.1619873981521454e-24
-0.48059868815624895	1.1222939862445902e-24
-0.48053765299999895	1.0782247397296663e-24
-0.48047661784374895	1.0299450109215835e-24
-0.48041558268749895	9.77636545039048e-25
-0.48035454753124895	9.214965939634592e-25
-0.48029351237499895	8.617374813483615e-25
-0.48023247721874895	7.985854452197994e-25
-0.48017144206249895	7.322799818500376e-25
-0.48011040690624895	6.630730475274526e-25
-0.48004937174999895	5.912276368836542e-25
-0.47998833659374895	5.170173721905454e-25
-0.47992730143749895	4.407250263369484e-25
-0.47986626628124895	3.626415653672938e-25
-0.47980523112499895	2.8306511138380928e-25
-0.47974419596874895	2.0229963743637015e-25
-0.47968316081249895	1.2065405076771039e-25
-0.47962212565624895	3.844070034528617e-26
-0.47956109049999895	-4.402565131664445e-26
-0.47950005534374895	-1.2642894939647023e-25
-0.47943902018749895	-2.084532904278558e-25
-0.47937798503124895	-2.897840310354224e-25
-0.47931694987499895	-3.7010885103340037e-25
-0.47925591471874895	-4.491192814022884e-25
-0.47919487956249895	-5.265116627649261e-25
-0.47913384440624895	-6.019881820613394e-25
-0.47907280924999895	-6.752585334805909e-25
-0.47901177409374895	-7.460405267847012e-25
-0.47895073893749895	-8.140612989833129e-25
-0.47888970378124895	-8.790586831704485e-25
-0.47882866862499895	-9.407817310784001e-25
-0.47876763346874895	-9.989921306445343e-25
-0.47870659831249895	-1.0534648889401895e-24
-0.47864556315624895	-1.1039891369425624e-24
-0.47858452799999895	-1.1503692994802877e-24
-0.47852349284374895	-1.1924254489371877e-24
-0.47846245768749895	-1.2299942625340514e-24
-0.47840142253124895	-1.2629295853947434e-24
-0.47834038737499895	-1.2911030028174712e-24
-0.47827935221874895	-1.3144043782092063e-24
-0.47821831706249895	-1.33274215093167e-24
-0.47815728190624895	-1.346043986848042e-24
-0.47809624674999895	-1.35425673714106e-24
-0.47803521159374895	-1.3573468340736452e-24
-0.47797417643749895	-1.355300494851376e-24
-0.47791314128124895	-1.3481235494053073e-24
-0.47785210612499895	-1.3358416867639404e-24
-0.47779107096874895	-1.3185001937289026e-24
-0.47773003581249895	-1.296163841558507e-24
-0.47766900065624895	-1.2689166970090782e-24
-0.47760796549999895	-1.236861705855565e-24
-0.47754693034374895	-1.2001203941293175e-24
-0.47748589518749895	-1.1588323670361108e-24
-0.47742486003124895	-1.113154797739061e-24
-0.47736382487499895	-1.0632617775513076e-24
-0.47730278971874895	-1.0093437084884278e-24
-0.47724175456249895	-9.516066710790815e-25
-0.47718071940624895	-8.902713071454494e-25
-0.47711968424999895	-8.25572336772e-25
-0.47705864909374895	-7.577576000645234e-25
-0.47699761393749895	-6.870867168750553e-25
-0.47693657878124895	-6.138307362257371e-25
-0.47687554362499895	-5.382705886824553e-25
-0.47681450846874895	-4.606960425531718e-25
-0.47675347331249895	-3.814050422901238e-25
-0.47669243815624895	-3.007018905946015e-25
-0.47663140299999895	-2.188965720076762e-25
-0.47657036784374895	-1.3630352693793283e-25
-0.47650933268749895	-5.324001279979777e-26
-0.47644829753124895	2.997460709616671e-26
-0.47638726237499895	1.1302031641620855e-25
-0.47632622721874895	1.9557776546699698e-25
-0.47626519206249895	2.77329409231379e-25
-0.47620415690624895	3.5796066624361697e-25
-0.47614312174999895	4.371612893492615e-25
-0.47608208659374895	5.146265487343605e-25
-0.47602105143749895	5.900581415499281e-25
-0.47596001628124895	6.631658876853674e-25
-0.47589898112499895	7.336683172061311e-25
-0.47583794596874895	8.012939224422376e-25
-0.47577691081249895	8.657825896151118e-25
-0.47571587565624895	9.268859655265678e-25
-0.47565484049999895	9.843688976302074e-25
-0.47559380534374895	1.0380102520003329e-24
-0.47553277018749895	1.0876035950865693e-24
-0.47547173503124895	1.1329582856185437e-24
-0.47541069987499895	1.1738999578514653e-24
-0.47534966471874895	1.2102713244412776e-24
-0.47528862956249895	1.2419328776733368e-24
-0.47522759440624895	1.2687632234879133e-24
-0.47516655924999895	1.290659713661462e-24
-0.47510552409374895	1.3075388604121055e-24
-0.47504448893749895	1.3193365696169963e-24
-0.47498345378124895	1.3260084581703445e-24
-0.47492241862499895	1.3275300364896477e-24
-0.47486138346874895	1.3238967844277573e-24
-0.47480034831249895	1.3151241971666274e-24
-0.47473931315624895	1.301247720639763e-24
-0.47467827799999895	1.282322623930822e-24
-0.47461724284374895	1.2584237963576298e-24
-0.47455620768749895	1.2296454564803733e-24
-0.47449517253124895	1.1961007987567175e-24
-0.47443413737499895	1.1579215582213332e-24
-0.47437310221874895	1.115257516066436e-24
-0.47431206706249895	1.0682758720643201e-24
-0.47425103190624895	1.0171607433318567e-24
-0.47418999674999895	9.621122101729215e-25
-0.47412896159374895	9.033457765038916e-25
-0.47406792643749895	8.410915471421365e-25
-0.47400689128124895	7.755929098381404e-25
-0.47394585612499895	7.071063717094912e-25
-0.47388482096874895	6.358998042891795e-25
-0.47382378581249895	5.622516651210829e-25
-0.47376275065624895	4.8645041732944095e-25
-0.47370171549999895	4.087923803016625e-25
-0.47364068034374895	3.29581540096578e-25
-0.47357964518749895	2.4912800031158743e-25
-0.47351861003124895	1.6774647578445534e-25
-0.47345757487499895	8.575568426423723e-26
-0.47339653971874895	3.4766370569595026e-27
-0.47333550456249895	-7.876849978418715e-26
-0.47327446940624895	-1.6065752700204642e-25
-0.47321343424999895	-2.418696425596093e-25
-0.47315239909374895	-3.2208656302330713e-25
-0.47309136393749895	-4.0099381271017297e-25
-0.47303032878124895	-4.782821011425066e-25
-0.47296929362499895	-5.5364813087758165e-25
-0.47290825846874895	-6.267961889016059e-25
-0.47284722331249895	-6.974392891348509e-25
-0.47278618815624895	-7.652998157239743e-25
-0.47272515299999895	-8.301112748406298e-25
-0.47266411784374895	-8.91618889774817e-25
-0.47260308268749895	-9.495806050844433e-25
-0.47254204753124895	-1.0037684606441548e-24
-0.47248101237499895	-1.0539689107629603e-24
-0.47241997721874895	-1.0999840557678232e-24
-0.47235894206249895	-1.141632322561869e-24
-0.47229790690624895	-1.1787491217686085e-24
