Time	Frequency
-0.5000028707812447	-0.005068660896730984
-0.4999418356249947	-0.02937608587438103
-0.4998808004687447	-0.053563541106593074
-0.4998197653124947	-0.07754034893068236
-0.4997587301562447	-0.1012166849129477
-0.4996976949999947	-0.12450384799714166
-0.4996366598437447	-0.14731446562195896
-0.4995756246874947	-0.16956293488898308
-0.4995145895312447	-0.19116577946820962
-0.4994535543749947	-0.21204182056382342
-0.4993925192187447	-0.23211254925706304
-0.4993314840624947	-0.25130252238462586
-0.4992704489062447	-0.2695394438172561
-0.4992094137499947	-0.2867545752194953
-0.4991483785937447	-0.3028829918983782
-0.4990873434374947	-0.31786373627308995
-0.4990263082812447	-0.3316401355675278
-0.4989652731249947	-0.34415997003761634
-0.4989042379687447	-0.3553756874424077
-0.4988432028124947	-0.3652445683982326
-0.4987821676562447	-0.3737288857614105
-0.4987211324999947	-0.38079608168296175
-0.4986600973437447	-0.38641885091941897
-0.4985990621874947	-0.39057524693761225
-0.4985380270312447	-0.39324880505026866
-0.4984769918749947	-0.3944285727397671
-0.4984159567187447	-0.3941091464174189
-0.4983549215624947	-0.3922907331474464
-0.4982938864062447	-0.38897911933326396
-0.4982328512499947	-0.38418565356435874
-0.4981718160937447	-0.3779272373027064
-0.4981107809374947	-0.3702262246881782
-0.4980497457812447	-0.3611103698103452
-0.4979887106249947	-0.3506127247840924
-0.4979276754687447	-0.3387714983860045
-0.4978666403124947	-0.32562994205548457
-0.4978056051562447	-0.3112361835041891
-0.4977445699999947	-0.2956430407957025
-0.4976835348437447	-0.2789078308322662
-0.4976224996874947	-0.26109218374792215
-0.4975614645312447	-0.24226176594373047
-0.4975004293749947	-0.22248609924671814
-0.4974393942187447	-0.20183825106484046
-0.4973783590624947	-0.18039456847435967
-0.4973173239062447	-0.15823446964047166
-0.4972562887499947	-0.13544003352479914
-0.4971952535937447	-0.11209577983401248
-0.4971342184374947	-0.08828834031000773
-0.4970731832812447	-0.06410611670465434
-0.4970121481249947	-0.0396389495614886
-0.4969511129687447	-0.01497781263201642
-0.4968900778124947	0.009785500403221013
-0.4968290426562447	0.03455884234623289
-0.4967680074999947	0.05924992007038577
-0.4967069723437447	0.08376664587609686
-0.4966459371874947	0.1080176161059611
-0.4965849020312447	0.1319122987787204
-0.4965238668749947	0.15536140950838428
-0.4964628317187447	0.17827734796389672
-0.4964017965624947	0.20057436905876141
-0.4963407614062447	0.22216899916975752
-0.4962797262499947	0.24298035884334396
-0.4962186910937447	0.26293037524498675
-0.4961576559374947	0.2819442010044945
-0.4960966207812447	0.299950380500247
-0.4960355856249947	0.31688115834195
-0.4959745504687447	0.3326728037981612
-0.4959135153124947	0.34726572258212046
-0.4958524801562447	0.3606047582180195
-0.4957914449999947	0.3726394223975837
-0.4957304098437447	0.3833240264669805
-0.4956693746874947	0.3926178774522268
-0.4956083395312447	0.40048543873654724
-0.4955473043749947	0.4068964724458873
-0.4954862692187447	0.41182613199605816
-0.4954252340624947	0.41525506529068507
-0.4953641989062447	0.41716951637670147
-0.4953031637499947	0.417561334290583
-0.4952421285937447	0.4164280429737885
-0.4951810934374947	0.4137728406889367
-0.4951200582812447	0.409604580355
-0.4950590231249947	0.4039377696329987
-0.4949979879687447	0.39679247741538065
-0.4949369528124947	0.3881943040988445
-0.4948759176562447	0.37817426441915103
-0.4948148824999947	0.36676866895662397
-0.4947538473437447	0.35401902334512453
-0.4946928121874947	0.33997183575772355
-0.4946317770312447	0.3246784822162113
-0.4945707418749947	0.3081949810534559
-0.4945097067187447	0.2905818323703523
-0.4944486715624947	0.27190374727345673
-0.4943876364062447	0.2522294142046156
-0.4943266012499947	0.2316313362006464
-0.4942655660937447	0.21018536565698526
-0.4942045309374947	0.1879706321191013
-0.4941434957812447	0.16506918018005176
-0.4940824606249947	0.14156551571198217
-0.4940214254687447	0.1175465585397298
-0.4939603903124947	0.09310112123898111
-0.4938993551562447	0.06831960351854895
-0.4938383199999947	0.04329375975466058
-0.4937772848437447	0.018116238935431652
-0.4937162496874947	-0.00711970695507032
-0.4936552145312447	-0.0323205684005573
-0.4935941793749947	-0.05739294358944653
-0.4935331442187447	-0.08224387966835436
-0.4934721090624947	-0.1067812246623714
-0.4934110739062447	-0.13091395110023923
-0.4933500387499947	-0.15455255990328773
-0.4932890035937447	-0.17760932705438026
-0.4932279684374947	-0.19999865063788477
-0.4931669332812447	-0.22163751457936148
-0.4931058981249947	-0.24244555451626948
-0.4930448629687447	-0.26234551741417866
-0.4929838278124947	-0.28126360862759775
-0.4929227926562447	-0.29912956552967657
-0.4928617574999947	-0.3158771002320549
-0.4928007223437447	-0.331444093556533
-0.4927396871874947	-0.34577279817808076
-0.4926786520312447	-0.358810097435224
-0.4926176168749947	-0.3705076861354458
-0.4925565817187447	-0.38082226589196505
-0.4924955465624947	-0.3897156838092529
-0.4924345114062447	-0.39715511254958574
-0.4923734762499947	-0.4031131628836649
-0.4923124410937447	-0.40756795595640277
-0.4922514059374947	-0.41050325820197026
-0.4921903707812447	-0.4119085281430605
-0.4921293356249947	-0.4117789208198115
-0.4920683004687447	-0.4101153656887569
-0.4920072653124947	-0.40692453461879924
-0.4919462301562447	-0.40221880802089743
-0.4918851949999947	-0.396016261266833
-0.4918241598437447	-0.38834057853924414
-0.4917631246874947	-0.3792209704354551
-0.4917020895312447	-0.36869206000628035
-0.4916410543749947	-0.35679378061849304
-0.4915800192187447	-0.34357119366354827
-0.4915189840624947	-0.32907433644749023
-0.4914579489062447	-0.3133580519321599
-0.4913969137499947	-0.2964817557613448
-0.4913358785937447	-0.27850924257068177
-0.4912748434374947	-0.25950841005612413
-0.4912138082812447	-0.2395510619598245
-0.4911527731249947	-0.21871259780378097
-0.4910917379687447	-0.19707172027959466
-0.4910307028124947	-0.1747101940009049
-0.4909696676562447	-0.15171248065544057
-0.4909086324999947	-0.12816547879630688
-0.4908475973437447	-0.10415813548349635
-0.4907865621874947	-0.07978115651598507
-0.4907255270312447	-0.055126695977488774
-0.4906644918749947	-0.030287890119832194
-0.4906034567187447	-0.0053586585106661306
-0.4905424215624947	0.019566738326311985
-0.4904813864062447	0.04439407999827875
-0.4904203512499947	0.06902941242643736
-0.4903593160937447	0.09337956668877108
-0.4902982809374947	0.11735239660257649
-0.4902372457812447	0.14085710478069524
-0.4901762106249947	0.16380474682574328
-0.4901151754687447	0.1861083934762342
-0.4900541403124947	0.20768348227119388
-0.4899931051562447	0.22844826825974826
-0.4899320699999947	0.24832400041800493
-0.4898710348437447	0.26723523966992896
-0.4898099996874947	0.2851101981444738
-0.4897489645312447	0.30188098738977254
-0.4896879293749947	0.31748383855585977
-0.4896268942187447	0.33185937965107404
-0.4895658590624947	0.3449528991763951
-0.4895048239062447	0.3567144455014808
-0.4894437887499947	0.36709912475206447
-0.4893827535937447	0.376067252115212
-0.4893217184374947	0.3835844069438876
-0.4892606832812447	0.38962171536653656
-0.4891996481249947	0.3941558695555953
-0.4891386129687447	0.39716919513843085
-0.4890775778124947	0.3986498200785037
-0.4890165426562447	0.39859162315147856
-0.4889555074999947	0.3969943105999
-0.4888944723437447	0.39386342281723763
-0.4888334371874947	0.38921028032682253
-0.4887724020312447	0.38305198541515384
-0.4887113668749947	0.375411330396995
-0.4886503317187447	0.36631673318593544
-0.4885892965624947	0.3558021180360295
-0.4885282614062447	0.3439067976892489
-0.4884672262499947	0.3306753439300638
-0.4884061910937447	0.316157373145145
-0.4883451559374947	0.3004074189513713
-0.4882841207812447	0.28348471368434647
-0.4882230856249947	0.2654529072803072
-0.4881620504687447	0.24637993016235601
-0.4881010153124947	0.22633768156950973
-0.4880399801562447	0.20540171710162558
-0.4879789449999947	0.18365108517512427
-0.4879179098437447	0.16116791115630066
-0.4878568746874947	0.13803712423046616
-0.4877958395312447	0.11434622750247361
-0.4877348043749947	0.09018478986776367
-0.4876737692187447	0.06564427347919549
-0.4876127340624947	0.04081763560489283
-0.4875516989062447	0.015798902070961716
-0.4874906637499947	-0.009317033406492202
-0.4874296285937447	-0.03443494218115038
-0.4873685934374947	-0.05945947007124341
-0.4873075582812447	-0.0842955638812341
-0.4872465231249947	-0.10884890804277622
-0.4871854879687447	-0.13302608185213396
-0.4871244528124947	-0.15673511129018566
-0.4870634176562447	-0.17988574600871157
-0.4870023824999947	-0.20238974055987458
-0.4869413473437447	-0.22416128082607162
-0.4868803121874947	-0.24511727505427688
-0.4868192770312447	-0.2651776577744926
-0.4867582418749947	-0.2842656979632777
-0.4866972067187447	-0.3023083059126889
-0.4866361715624947	-0.31923629943345033
-0.4865751364062447	-0.3349846930604444
-0.4865141012499947	-0.3494928722184736
-0.4864530660937447	-0.36270492835913815
-0.4863920309374947	-0.3745698305125019
-0.4863309957812447	-0.38504152688532023
-0.4862699606249947	-0.394079314942302
-0.4862089254687447	-0.40164784973415907
-0.4861478903124947	-0.40771726975581785
-0.4860868551562447	-0.41226346228990307
-0.4860258199999947	-0.415267998017551
-0.4859647848437447	-0.41671826144732066
-0.4859037496874947	-0.416607561652489
-0.4858427145312447	-0.4149350571711459
-0.4857816793749947	-0.4117058264310653
-0.4857206442187447	-0.40693085649318494
-0.4856596090624947	-0.40062696237628304
-0.4855985739062447	-0.39281676114789305
-0.4855375387499947	-0.3835285884170755
-0.4854765035937447	-0.3727963617034522
-0.4854154684374947	-0.3606595102429542
-0.4853544332812447	-0.3471627717773556
-0.4852933981249947	-0.3323560499207207
-0.4852323629687447	-0.3162942731489103
-0.4851713278124947	-0.2990370783619633
-0.4851102926562447	-0.2806487148066388
-0.4850492574999947	-0.26119771989273105
-0.4849882223437447	-0.24075667464793468
-0.4849271871874947	-0.21940197778113987
-0.4848661520312447	-0.19721348615277257
-0.4848051168749947	-0.17427428311230533
-0.4847440817187447	-0.15067029906812857
-0.4846830465624947	-0.1264900708880033
-0.4846220114062447	-0.10182432121953816
-0.4845609762499947	-0.07676564983503012
-0.4844999410937447	-0.05140823773620686
-0.4844389059374947	-0.0258473933736785
-0.4843778707812447	-0.0001792435112727901
-0.4843168356249947	0.025499602874729285
-0.4842558004687447	0.05109245049969848
-0.4841947653124947	0.07650294980144859
-0.4841337301562447	0.101635311635747
-0.4840726949999947	0.12639478085324934
-0.4840116598437447	0.15068803380195891
-0.4839506246874947	0.17442337698448646
-0.4838895895312447	0.1975112303064207
-0.4838285543749947	0.219864466456176
-0.4837675192187447	0.24139862485678693
-0.4837064840624947	0.2620323431809703
-0.4836454489062447	0.28168769385361797
-0.4835844137499947	0.3002903070667732
-0.4835233785937447	0.31776985424054044
-0.4834623434374947	0.3340602437932362
-0.4834013082812447	0.34909976907328205
-0.4833402731249947	0.36283154180038935
-0.4832792379687447	0.3752035541456191
-0.4832182028124947	0.3861689290389491
-0.4831571676562447	0.3956861212094375
-0.4830961324999947	0.4037190553486484
-0.4830350973437447	0.41023726469060484
-0.4829740621874947	0.41521599065401127
-0.4829130270312447	0.4186363616665305
-0.4828519918749947	0.4204853529511996
-0.4827909567187447	0.4207559027162444
-0.4827299215624947	0.41944696992169717
-0.4826688864062447	0.4165634590113328
-0.4826078512499947	0.41211627147228486
-0.4825468160937447	0.4061222468304855
-0.4824857809374947	0.39860408921755264
-0.4824247457812447	0.3895903045454745
-0.4823637106249947	0.37911506917482113
-0.4823026754687447	0.3672181374108431
-0.4822416403124947	0.3539446512109042
-0.4821806051562447	0.33934501559824626
-0.4821195699999947	0.3234746640964749
-0.4820585348437447	0.3063938810297199
-0.4819974996874947	0.2881675962085913
-0.4819364645312447	0.2688650206176438
-0.4818754293749947	0.2485595902366846
-0.4818143942187447	0.22732850602385618
-0.4817533590624947	0.20525248211150304
-0.4816923239062447	0.1824155378728435
-0.4816312887499947	0.15890455445985305
-0.4815702535937447	0.13480901921562172
-0.4815092184374947	0.11022064748251671
-0.4814481832812447	0.08523308343905353
-0.4813871481249947	0.059941480841404715
-0.4813261129687447	0.03444219162571898
-0.4812650778124947	0.008832367958461039
-0.4812040426562447	-0.016790374645222463
-0.4811430074999947	-0.04232836218892877
-0.4810819723437447	-0.06768424694230402
-0.4810209371874947	-0.09276128091235733
-0.4809599020312447	-0.11746383947762509
-0.4808988668749947	-0.14169765090265662
-0.4808378317187447	-0.16537022224151227
-0.4807767965624947	-0.18839119644800237
-0.4807157614062447	-0.21067263904355424
-0.4806547262499947	-0.23212947680379817
-0.4805936910937447	-0.252679702135235
-0.4805326559374947	-0.27224479443222
-0.4804716207812447	-0.2907499591880372
-0.4804105856249947	-0.30812440490264864
-0.4803495504687447	-0.32430170854444607
-0.4802885153124947	-0.3392199276820107
-0.4802274801562447	-0.3528219385575688
-0.4801664449999947	-0.365055684646138
-0.4801054098437447	-0.375874252562759
-0.4800443746874947	-0.3852361418219392
-0.4799833395312447	-0.3931054697353207
-0.4799223043749947	-0.3994519747347279
-0.4798612692187447	-0.404251232727134
-0.4798002340624947	-0.40748477832165086
-0.4797391989062447	-0.40914006570992373
-0.4796781637499947	-0.40921061394619984
-0.4796171285937447	-0.4076960223299055
-0.4795560934374947	-0.40460192063187517
-0.4794950582812447	-0.3999400106531919
-0.4794340231249947	-0.3937280033920168
-0.4793729879687447	-0.38598952676009657
-0.4793119528124947	-0.3767540923940689
-0.4792509176562447	-0.36605693801226347
-0.4791898824999947	-0.3539389059841805
-0.4791288473437447	-0.3404463203292287
-0.4790678121874947	-0.3256307615787568
-0.4790067770312447	-0.30954891557466835
-0.4789457418749947	-0.29226232919017925
-0.4788847067187447	-0.2738371985508941
-0.4788236715624947	-0.25434411582033983
-0.4787626364062447	-0.23385775239403891
-0.4787016012499947	-0.21245667675362256
-0.4786405660937447	-0.19022295387098653
-0.4785795309374947	-0.16724187873679772
-0.4785184957812447	-0.14360165830916888
-0.4784574606249947	-0.11939303267606727
-0.4783964254687447	-0.0947090320262115
-0.4783353903124947	-0.0696444431917632
-0.4782743551562447	-0.04429561350255763
-0.4782133199999947	-0.01876006474702065
-0.4781522848437447	0.006864036722152436
-0.4780912496874947	0.032478062402338914
-0.4780302145312447	0.0579833756600975
-0.4779691793749947	0.08328176375298953
-0.4779081442187447	0.10827572971551436
-0.4778471090624947	0.13286890899885084
-0.4777860739062447	0.1569664364633893
-0.4777250387499947	0.18047529651090188
-0.4776640035937447	0.2033047176227003
-0.4776029684374947	0.22536645080552542
-0.4775419332812447	0.24657519464432387
-0.4774808981249947	0.26684886848483613
-0.4774198629687447	0.2861089204336759
-0.4773588278124947	0.3042807109756926
-0.4772977926562447	0.32129367973203216
-0.4772367574999947	0.3370817084648292
-0.4771757223437447	0.35158337902017583
-0.4771146871874947	0.36474213172155817
-0.4770536520312447	0.37650656953352357
-0.4769926168749947	0.3868306391881304
-0.4769315817187447	0.39567374301506025
-0.4768705465624947	0.4030010094538416
-0.4768095114062447	0.4087833546144084
-0.4767484762499947	0.41299757500982043
-0.4766874410937447	0.4156265509980253
-0.4766264059374947	0.4166591900483125
-0.4765653707812447	0.416090531625658
-0.4765043356249947	0.4139218048129531
-0.4764433004687447	0.4101603334799303
-0.4763822653124947	0.4048195989340052
-0.4763212301562447	0.3979191589059599
-0.4762601949999947	0.38948454166012436
-0.4761991598437447	0.3795472314339697
-0.4761381246874947	0.36814446141609575
-0.4760770895312447	0.35531913266114556
-0.4760160543749947	0.3411196514887154
-0.4759550192187447	0.3255996905131922
-0.4758939840624947	0.3088180684944802
-0.4758329489062447	0.2908384531159865
-0.4757719137499947	0.2717291599942909
-0.4757108785937447	0.2515628936204515
-0.4756498434374947	0.23041643227963163
-0.4755888082812447	0.2083703925670102
-0.4755277731249947	0.18550887264253954
-0.4754667379687447	0.1619191364798343
-0.4754057028124947	0.13769133691320487
-0.4753446676562447	0.1129180885717721
-0.4752836324999947	0.08769414897276767
-0.4752225973437447	0.06211608223440517
-0.4751615621874947	0.03628185702279742
-0.4751005270312447	0.010290460364584137
-0.4750394918749947	-0.015758453352248052
-0.4749784567187447	-0.04176492480958932
-0.4749174215624947	-0.06762919474854787
-0.4748563864062447	-0.09325190137816043
-0.4747953512499947	-0.11853459525156403
-0.4747343160937447	-0.14338015029346332
-0.4746732809374947	-0.16769293566695764
-0.4746122457812447	-0.191379438805755
-0.4745512106249947	-0.21434849775466627
-0.4744901754687447	-0.2365115755546351
-0.4744291403124947	-0.2577832806384669
-0.4743681051562447	-0.27808158231459534
-0.4743070699999947	-0.2973281350235772
-0.4742460348437447	-0.31544862825967557
-0.4741849996874947	-0.33237300997621444
-0.4741239645312447	-0.34803583164876284
-0.4740629293749947	-0.3623764651177278
-0.4740018942187447	-0.3753392973067101
-0.4739408590624947	-0.3868740358986867
-0.4738798239062447	-0.3969358607880622
-0.4738187887499947	-0.4054855454568336
-0.4737577535937447	-0.41248971859501393
-0.4736967184374947	-0.4179209363493386
-0.4736356832812447	-0.42175775059314746
-0.4735746481249947	-0.4239848957367165
-0.4735136129687447	-0.4245932641384602
-0.4734525778124947	-0.4235799730765697
-0.4733915426562447	-0.42094840333567335
-0.4733305074999947	-0.41670814499588027
-0.4732694723437447	-0.4108750004024605
-0.4732084371874947	-0.40347090367929583
-0.4731474020312447	-0.39452385266618045
-0.4730863668749947	-0.38406780203204943
-0.4730253317187447	-0.37214251871922377
-0.4729642965624947	-0.35879346625678993
-0.4729032614062447	-0.344071594056517
-0.4728422262499947	-0.32803316710035385
-0.4727811910937447	-0.31073955384897933
-0.4727201559374947	-0.2922569654225501
-0.4726591207812447	-0.2726562427783912
-0.4725980856249947	-0.25201254633021053
-0.4725370504687447	-0.23040509544194357
-0.4724760153124947	-0.20791685212475575
-0.4724149801562447	-0.18463420928959573
-0.4723539449999947	-0.16064666141821515
-0.4722929098437447	-0.1360464163285154
-0.4722318746874947	-0.11092813633190703
-0.4721708395312447	-0.08538849263056436
-0.4721098043749947	-0.05952578766763861
-0.4720487692187447	-0.03343965597651539
-0.4719877340624947	-0.007230587786874743
-0.4719266989062447	0.019000372258003436
-0.4718656637499947	0.0451521139903902
-0.4718046285937447	0.07112377499116519
-0.4717435934374947	0.09681508887274878
-0.4716825582812447	0.12212698704614587
-0.4716215231249947	0.1469616740881359
-0.4715604879687447	0.17122322180920646
-0.4714994528124947	0.1948179823559256
-0.4714384176562447	0.21765466304410083
-0.4713773824999947	0.2396450036594043
-0.4713163473437447	0.2607040004760685
-0.4712553121874947	0.28075011355653934
-0.4711942770312447	0.29970576516334746
-0.4711332418749947	0.3174975834976657
-0.4710722067187447	0.3340566143011077
-0.4710111715624947	0.349318683301059
-0.4709501364062447	0.3632246241565488
-0.4708891012499947	0.3757204625179456
-0.4708280660937447	0.38675769424149997
-0.4707670309374947	0.3962934199631301
-0.4707059957812447	0.40429054923626356
-0.4706449606249947	0.4107179487049883
-0.4705839254687447	0.41555052296689976
-0.4705228903124947	0.4187693579560247
-0.4704618551562447	0.42036179210785946
-0.4704008199999947	0.42032145092878814
-0.4703397848437447	0.4186482685659178
-0.4702787496874947	0.4153485307234824
-0.4702177145312447	0.4104348164925022
-0.4701566793749947	0.4039259509720918
-0.4700956442187447	0.3958469740265068
-0.4700346090624947	0.386228996281987
-0.4699735739062447	0.3751091209842345
-0.4699125387499947	0.36253027934955606
-0.4698515035937447	0.3485410749127505
-0.4697904684374947	0.33319561249302615
-0.4697294332812447	0.3165532402827852
-0.4696683981249947	0.2986784029879484
