Time	Frequency
-0.5000513596250045	-0.3846098797272212
-0.49999032446875447	-0.37151112069854836
-0.49992928931250447	-0.3568883064335511
-0.49986825415625447	-0.34080241977373077
-0.49980721900000447	-0.3233205658919527
-0.49974618384375447	-0.3045156760851593
-0.49968514868750447	-0.2844661699546952
-0.49962411353125447	-0.26325569382574465
-0.49956307837500447	-0.24097270374350993
-0.49950204321875447	-0.2177101760049526
-0.49944100806250447	-0.19356514354765994
-0.49937997290625447	-0.16863832876177076
-0.49931893775000447	-0.14303376439139634
-0.49925790259375447	-0.11685827075796006
-0.49919686743750447	-0.09022109791232173
-0.49913583228125447	-0.06323339960922421
-0.49907479712500447	-0.036007840590710376
-0.49901376196875447	-0.008658070296301109
-0.49895272681250447	0.01870175762107764
-0.49889169165625447	0.04595735757611108
-0.49883065650000447	0.07299496940452926
-0.49876962134375447	0.09970163826454011
-0.49870858618750447	0.12596584230768246
-0.49864755103125447	0.15167789026403933
-0.49858651587500447	0.17673030753394967
-0.49852548071875447	0.2010185272681321
-0.49846444556250447	0.22444099540686543
-0.49840341040625447	0.24689983596352902
-0.49834237525000447	0.26830127699935163
-0.49828134009375447	0.288555805217141
-0.49822030493750447	0.3075787747656885
-0.49815926978125447	0.3252907381234843
-0.49809823462500447	0.3416176330730688
-0.49803719946875447	0.35649121052849025
-0.49797616431250447	0.36984935911762773
-0.49791512915625447	0.38163623816114467
-0.49785409400000447	0.39180260541522144
-0.49779305884375447	0.4003060340307779
-0.49773202368750447	0.4071110226400572
-0.49767098853125447	0.41218919522236536
-0.49760995337500447	0.4155194369874285
-0.49754891821875447	0.41708793602985444
-0.49748788306250447	0.4168882753182358
-0.49742684790625447	0.41492147253259803
-0.49736581275000447	0.4111959458608746
-0.49730477759375447	0.4057275062420003
-0.49724374243750447	0.39853928689442747
-0.49718270728125447	0.3896616480007123
-0.49712167212500447	0.3791320523637356
-0.49706063696875447	0.3669949198352836
-0.49699960181250447	0.3533014153199473
-0.49693856665625447	0.3381092859914019
-0.49687753150000447	0.32148257730885454
-0.49681649634375447	0.3034913685737589
-0.49675546118750447	0.28421153853681225
-0.49669442603125447	0.26372435061212396
-0.49663339087500447	0.24211623375563696
-0.49657235571875447	0.21947829303077437
-0.49651132056250447	0.195906032696497
-0.49645028540625447	0.17149895346976693
-0.49638925025000447	0.1463599759519045
-0.49632821509375447	0.12059530382240365
-0.49626717993750447	0.09431371430687734
-0.49620614478125447	0.06762615078074488
-0.49614510962500447	0.04064545829882452
-0.49608407446875447	0.013485620522963584
-0.49602303931250447	-0.013738530925776907
-0.49596200415625447	-0.040911796423857026
-0.49590096900000447	-0.06791926856964108
-0.49583993384375447	-0.09464655013800413
-0.49577889868750447	-0.12098044534432732
-0.49571786353125447	-0.14680941253722926
-0.49565682837500447	-0.1720238688962098
-0.49559579321875447	-0.19651685851057096
-0.49553475806250447	-0.22018440843166745
-0.49547372290625447	-0.24292594537417972
-0.49541268775000447	-0.26464474041418345
-0.49535165259375447	-0.28524837346180887
-0.49529061743750447	-0.30464904318511915
-0.49522958228125447	-0.32276396995452356
-0.49516854712500447	-0.3395157676091206
-0.49510751196875447	-0.354832728801124
-0.49504647681250447	-0.3686491907656684
-0.49498544165625447	-0.3809057363400909
-0.49492440650000447	-0.3915495189053701
-0.49486337134375447	-0.40053444859743254
-0.49480233618750447	-0.40782138734276535
-0.49474130103125447	-0.4133783671289455
-0.49468026587500447	-0.4171806423054936
-0.49461923071875447	-0.41921087724200545
-0.49455819556250447	-0.41945920577005485
-0.49449716040625447	-0.41792321994350984
-0.49443612525000447	-0.4146080706875932
-0.49437509009375447	-0.409526393062658
-0.49431405493750447	-0.4026982675188117
-0.49425301978125447	-0.39415115691791847
-0.49419198462500447	-0.38391977556541274
-0.49413094946875447	-0.37204596662114947
-0.49406991431250447	-0.3585785001426822
-0.49400887915625447	-0.3435729142875756
-0.49394784400000447	-0.3270912502156954
-0.49388680884375447	-0.30920180279678067
-0.49382577368750447	-0.28997885741658264
-0.49376473853125447	-0.2695023469214913
-0.49370370337500447	-0.24785755610071059
-0.49364266821875447	-0.22513473060924719
-0.49358163306250447	-0.20142872850124627
-0.49352059790625447	-0.17683859850533987
-0.49345956275000447	-0.1514671720126546
-0.49339852759375447	-0.1254207117201516
-0.49333749243750447	-0.09880826696342845
-0.49327645728125447	-0.07174142922807361
-0.49321542212500447	-0.04433383221780191
-0.49315438696875447	-0.016700437318797924
-0.49309335181250447	0.011042579473865277
-0.49303231665625447	0.038778560924013245
-0.49297128150000447	0.06639088336330261
-0.49291024634375447	0.0937632295718056
-0.49284921118750447	0.12078031141977799
-0.49278817603125447	0.1473282331016179
-0.49272714087500447	0.17329496067912348
-0.49266610571875447	0.19857089338142042
-0.49260507056250447	0.22304922908304733
-0.49254403540625447	0.24662641190863913
-0.49248300025000447	0.2692027074300099
-0.49242196509375447	0.29068245724788366
-0.49236092993750447	0.3109745076606202
-0.49229989478125447	0.3299927851553039
-0.49223885962500447	0.347656390637675
-0.49217782446875447	0.3638900946661726
-0.49211678931250447	0.37862469972589236
-0.49205575415625447	0.39179718823087994
-0.49199471900000447	0.4033511267208003
-0.49193368384375447	0.4132368282523378
-0.49187264868750447	0.4214115963345471
-0.49181161353125447	0.42783991639306135
-0.49175057837500447	0.4324935715104824
-0.49168954321875447	0.43535181145061846
-0.49162850806250447	0.4364014201955891
-0.49156747290625447	0.4356367712836282
-0.49150643775000447	0.43305986632142324
-0.49144540259375447	0.4286803375372919
-0.49138436743750447	0.4225153956894247
-0.49132333228125447	0.41458975245018187
-0.49126229712500447	0.40493557496760124
-0.49120126196875447	0.39359228539390206
-0.49114022681250447	0.38060641510606913
-0.49107919165625447	0.3660314930738624
-0.49101815650000447	0.34992767765691946
-0.49095712134375447	0.3323616185349065
-0.49089608618750447	0.3134061932534497
-0.49083505103125447	0.29314007645650625
-0.49077401587500447	0.2716475316483452
-0.49071298071875447	0.24901805015259826
-0.49065194556250447	0.22534590132032792
-0.49059091040625447	0.20072977008322757
-0.49052987525000447	0.17527242524794615
-0.49046884009375447	0.149080161996197
-0.49040780493750447	0.12226239423284642
-0.49034676978125447	0.09493128515769236
-0.49028573462500447	0.06720114382512575
-0.49022469946875447	0.03918801008866336
-0.49016366431250447	0.011009183940198744
-0.49010262915625447	-0.017217308543679578
-0.49004159400000447	-0.045373212640032405
-0.48998055884375447	-0.07334051549581634
-0.48991952368750447	-0.10100193482504674
-0.48985848853125447	-0.12824147446932851
-0.48979745337500447	-0.15494488231263606
-0.48973641821875447	-0.18100007600630177
-0.48967538306250447	-0.20629771155627155
-0.48961434790625447	-0.2307316226469185
-0.48955331275000447	-0.2541991867970673
-0.48949227759375447	-0.2766018806068952
-0.48943124243750447	-0.2978456328297298
-0.48937020728125447	-0.31784120349258216
-0.48930917212500447	-0.3365046244191481
-0.48924813696875447	-0.35375751822196466
-0.48918710181250447	-0.36952743046134584
-0.48912606665625447	-0.3837481329531239
-0.48906503150000447	-0.39635995271223895
-0.48900399634375447	-0.4073099637096767
-0.48894296118750447	-0.416552246856405
-0.48888192603125447	-0.4240481026965959
-0.48882089087500447	-0.42976616402805
-0.48875985571875447	-0.43368259819419686
-0.48869882056250447	-0.4357811554897592
-0.48863778540625447	-0.43605326825825347
-0.48857675025000447	-0.4344980931832685
-0.48851571509375447	-0.4311224941815311
-0.48845467993750447	-0.4259410485151605
-0.48839364478125447	-0.4189759536416235
-0.48833260962500447	-0.41025696343228596
-0.48827157446875447	-0.39982125828693055
-0.48821053931250447	-0.3877132690864474
-0.48814950415625447	-0.37398453232879686
-0.48808846900000447	-0.3586934355367513
-0.48802743384375447	-0.34190498351000037
-0.48796639868750447	-0.32369055773935496
-0.48790536353125447	-0.3041275489571302
-0.48784432837500447	-0.283299101870979
-0.48778329321875447	-0.2612937280957959
-0.48772225806250447	-0.23820490618158682
-0.48766122290625447	-0.21413077111613776
-0.48760018775000447	-0.18917362775721341
-0.48753915259375447	-0.16343947476228846
-0.48747811743750447	-0.13703773425851057
-0.48741708228125447	-0.11008061634079337
-0.48735604712500447	-0.0826826175689454
-0.48729501196875447	-0.054960320270520814
-0.48723397681250447	-0.027031481882340423
-0.48717294165625447	0.0009851380821991286
-0.48711190650000447	0.0289703321275542
-0.48705087134375447	0.05680521588014452
-0.48698983618750447	0.08437128951938094
-0.48692880103125447	0.11155135068812543
-0.48686776587500447	0.13822978234793182
-0.48680673071875447	0.1642930046129217
-0.48674569556250447	0.1896301786259185
-0.48668466040625447	0.2141334404423289
-0.48662362525000447	0.23769848223547238
-0.48656259009375447	0.2602249804654568
-0.48650155493750447	0.28161703424135565
-0.48644051978125447	0.30178355585120464
-0.48637948462500447	0.3206386137188647
-0.48631844946875447	0.338101922619004
-0.48625741431250447	0.354099105130229
-0.48619637915625447	0.36856194097784256
-0.48613534400000447	0.3814288363995223
-0.48607430884375447	0.39264496977811947
-0.48601327368750447	0.40216248760721895
-0.48595223853125447	0.4099408547223652
-0.48589120337500447	0.41594691248897536
-0.48583016821875447	0.4201550416145743
-0.48576913306250447	0.4225473332506521
-0.48570809790625447	0.42311359292252687
-0.48564706275000447	0.4218514317438372
-0.48558602759375447	0.4187662850685763
-0.48552499243750447	0.4138713469876507
-0.48546395728125447	0.4071875744403906
-0.48540292212500447	0.3987435600171669
-0.48534188696875447	0.38857542222926006
-0.48528085181250447	0.3767266850000267
-0.48521981665625447	0.36324803248513343
-0.48515878150000447	0.34819716017578745
-0.48509774634375447	0.33163850914346416
-0.48503671118750447	0.31364296012971443
-0.48497567603125447	0.29428758665597327
-0.48491464087500447	0.2736553061131101
-0.48485360571875447	0.25183452197131334
-0.48479257056250447	0.22891874430802006
-0.48473153540625447	0.2050062263326671
-0.48467050025000447	0.18019951349502733
-0.48460946509375447	0.15460499835331623
-0.48454842993750447	0.1283325345930264
-0.48448739478125447	0.10149487178289182
-0.48442635962500447	0.07420725213102408
-0.48436532446875447	0.04658692276628709
-0.48430428931250447	0.018752504995897798
-0.48424325415625447	-0.009176280417677832
-0.48418221900000447	-0.0370793187667735
-0.48412118384375447	-0.0648366163405689
-0.48406014868750447	-0.09232858303724703
-0.48399911353125447	-0.1194368750698101
-0.48393807837500447	-0.14604465360946695
-0.48387704321875447	-0.1720371334425546
-0.48381600806250447	-0.19730222877254128
-0.48375497290625447	-0.2217307685098627
-0.48369393775000447	-0.24521719374513992
-0.48363290259375447	-0.26765994282722566
-0.48357186743750447	-0.288961809001537
-0.48351083228125447	-0.30903045399426293
-0.48344979712500447	-0.3277787683120162
-0.48338876196875447	-0.34512528030080925
-0.48332772681250447	-0.36099443365874223
-0.48326669165625447	-0.3753169652846531
-0.48320565650000447	-0.38803024705343414
-0.48314462134375447	-0.3990784576408464
-0.48308358618750447	-0.40841289426529537
-0.48302255103125447	-0.41599218578801306
-0.48296151587500447	-0.4217824345102306
-0.48290048071875447	-0.42575740421443425
-0.48283944556250447	-0.4278986081017871
-0.48277841040625447	-0.4281954155833359
-0.48271737525000447	-0.4266450956758217
-0.48265634009375447	-0.42325281361313616
-0.48259530493750447	-0.41803164604931703
-0.48253426978125447	-0.41100251386428327
-0.48247323462500447	-0.4021940848175941
-0.48241219946875447	-0.39164267609437936
-0.48235116431250447	-0.37939211391535427
-0.48229012915625447	-0.3654934884914117
-0.48222909400000447	-0.3500050212658033
-0.48216805884375447	-0.3329917968014588
-0.48210702368750447	-0.3145254009790163
-0.48204598853125447	-0.29468378034370796
-0.48198495337500447	-0.27355077484324475
-0.48192391821875447	-0.251215796818594
-0.48186288306250447	-0.2277735409138838
-0.48180184790625447	-0.20332339816063824
-0.48174081275000447	-0.1779692311313174
-0.48167977759375447	-0.15181883998471823
-0.48161874243750447	-0.12498341569769018
-0.48155770728125447	-0.09757727989234888
-0.48149667212500447	-0.06971720706632524
-0.48143563696875447	-0.041521963744837576
-0.48137460181250447	-0.013111917861117307
-0.48131356665625447	0.015391624289957209
-0.48125253150000447	0.04386686577781967
-0.48119149634375447	0.07219205300721043
-0.48113046118750447	0.10024596829837193
-0.48106942603125447	0.1279084761121188
-0.48100839087500447	0.1550611225884289
-0.48094735571875447	0.1815874096682817
-0.48088632056250447	0.2073735501821399
-0.48082528540625447	0.23230887437496353
-0.48076425025000447	0.256286136923586
-0.48070321509375447	0.279202301022578
-0.48064217993750447	0.30095870943673947
-0.48058114478125447	0.3214615609445751
-0.48052010962500447	0.3406224903212502
-0.48045907446875447	0.3583587403294688
-0.48039803931250447	0.37459353757888747
-0.48033700415625447	0.389256618315961
-0.48027596900000447	0.40228435608060026
-0.48021493384375447	0.4136199793123295
-0.48015389868750447	0.42321408132652616
-0.48009286353125447	0.43102459237942436
-0.48003182837500447	0.437017025686269
-0.47997079321875447	0.44116473445106097
-0.47990975806250447	0.4434488761834849
-0.47984872290625447	0.443858605643134
-0.47978768775000447	0.4423910916695041
-0.47972665259375447	0.4390515162507389
-0.47966561743750447	0.43385309566905467
-0.47960458228125447	0.4268169890008859
-0.47954354712500447	0.41797223213117346
-0.47948251196875447	0.40735563535762637
-0.47942147681250447	0.3950115756741481
-0.47936044165625447	0.3809918660082243
-0.47929940650000447	0.3653555209862192
-0.47923837134375447	0.3481684784712057
-0.47917733618750447	0.32950336446566436
-0.47911630103125447	0.3094391472200966
-0.47905526587500447	0.28806085099410567
-0.47899423071875447	0.2654591158638242
-0.47893319556250447	0.2417298882771616
-0.47887216040625447	0.21697399885877813
-0.47881112525000447	0.1912966581795285
-0.47875009009375447	0.16480712242885992
-0.47868905493750447	0.13761814228825267
-0.47862801978125447	0.10984552382346008
-0.47856698462500447	0.08160756259290748
-0.47850594946875447	0.053024676653500406
-0.47844491431250447	0.024218770812801826
-0.47838387915625447	-0.00468734848243333
-0.47832284400000447	-0.03357020592670167
-0.47826180884375447	-0.062306561430434226
-0.47820077368750447	-0.090773715967773
-0.47813973853125447	-0.11884998912978188
-0.47807870337500447	-0.14641549633987233
-0.47801766821875447	-0.1733523995803075
-0.47795663306250447	-0.19954554509035483
-0.47789559790625447	-0.22488295225656843
-0.47783456275000447	-0.24925627653362492
-0.47777352759375447	-0.2725612720542079
-0.47771249243750447	-0.29469824013629065
-0.47765145728125447	-0.3155725275777882
-0.47759042212500447	-0.3350947900216013
-0.47752938696875447	-0.35318152424947014
-0.47746835181250447	-0.369755389796042
-0.47740731665625447	-0.38474545091584433
-0.47734628150000447	-0.3980876367699238
-0.47728524634375447	-0.40972490758872776
-0.47722421118750447	-0.4196075218565613
-0.47716317603125447	-0.42769331639131003
-0.47710214087500447	-0.43394780569180497
-0.47704110571875447	-0.4383443755060689
-0.47698007056250447	-0.4408644196904557
-0.47691903540625447	-0.4414973780384571
-0.47685800025000447	-0.4402408101135026
-0.47679696509375447	-0.4371004212697819
-0.47673592993750447	-0.4320900074259581
-0.47667489478125447	-0.42523142261782204
-0.47661385962500447	-0.4165544963924921
-0.47655282446875447	-0.4060968719765609
-0.47649178931250447	-0.39390387423550244
-0.47643075415625447	-0.3800283386495535
-0.47636971900000447	-0.3645303175384756
-0.47630868384375447	-0.34747689415884464
-0.47624764868750447	-0.32894186524880015
-0.47618661353125447	-0.3090054138602571
-0.47612557837500447	-0.2877538014827676
-0.47606454321875447	-0.265278934717624
-0.47600350806250447	-0.24167808751105024
-0.47594247290625447	-0.2170533202257655
-0.47588143775000447	-0.19151116349781916
-0.47582040259375447	-0.16516218719277967
-0.47575936743750447	-0.1381203434299849
-0.47569833228125447	-0.1105026716141781
-0.47563729712500447	-0.08242872836531882
-0.47557626196875447	-0.05402000951372269
-0.47551522681250447	-0.025399485323873636
-0.47545419165625447	0.0033088850099483587
-0.47539315650000447	0.03198080735066398
-0.47533212134375447	0.06049210707380841
-0.47527108618750447	0.08871925301377039
-0.47521005103125447	0.11653997709880225
-0.47514901587500447	0.1438336894683241
-0.47508798071875447	0.17048212149807884
-0.47502694556250447	0.19636972681239467
-0.47496591040625447	0.22138424120814107
-0.47490487525000447	0.24541723797941917
-0.47484384009375447	0.26836437984176825
-0.47478280493750447	0.2901261276783169
-0.47472176978125447	0.3106080555493097
-0.47466073462500447	0.32972117694933845
-0.47459969946875447	0.347382528101504
-0.47453866431250447	0.363515355012818
-0.47447762915625447	0.37804955172415233
-0.47441659400000447	0.39092190553557626
-0.47435555884375447	0.4020764011634427
-0.47429452368750447	0.41146451951125196
-0.47423348853125447	0.4190453015068545
-0.47417245337500447	0.42478569506292513
-0.47411141821875447	0.42866062623553286
-0.47405038306250447	0.4306530724030292
-0.47398934790625447	0.4307542232514291
-0.47392831275000447	0.42896346300339155
-0.47386727759375447	0.42528840568246445
-0.47380624243750447	0.41974483914261623
-0.47374520728125447	0.4123566953097149
-0.47368417212500447	0.4031559207418346
-0.47362313696875447	0.39218234472818403
-0.47356210181250447	0.3794835430173124
-0.47350106665625447	0.36511456693853384
-0.47344003150000447	0.34913780159911245
-0.47337899634375447	0.33162260084287926
-0.47331796118750447	0.3126450525496013
-0.47325692603125447	0.29228765898990944
-0.47319589087500447	0.2706388946055911
-0.47313485571875447	0.24779297148320484
-0.47307382056250447	0.22384926578945083
-0.47301278540625447	0.19891200909440995
-0.47295175025000447	0.17308983725231591
-0.47289071509375447	0.14649519771273445
-0.47282967993750447	0.11924402345782667
-0.47276864478125447	0.091455119692783
-0.47270760962500447	0.06324968669630986
-0.47264657446875447	0.034750819906903686
-0.47258553931250447	0.006082899438613204
-0.47252450415625447	-0.0226288402534156
-0.47246346900000447	-0.051258955238811695
-0.47240243384375447	-0.07968230950443032
-0.47234139868750447	-0.10777453464105728
-0.47228036353125447	-0.13541274420077562
-0.47221932837500447	-0.16247587368803004
-0.47215829321875447	-0.1888453568001099
-0.47209725806250447	-0.21440559310067928
-0.47203622290625447	-0.23904435621741751
-0.47197518775000447	-0.2626535410819272
-0.47191415259375447	-0.28512930512108176
-0.47185311743750447	-0.30637274797889535
-0.47179208228125447	-0.3262903436593092
-0.47173104712500447	-0.3447941761635729
-0.47167001196875447	-0.36180252963076254
-0.47160897681250447	-0.3772401153609603
-0.47154794165625447	-0.39103845439704066
-0.47148690650000447	-0.4031361730052557
-0.47142587134375447	-0.4134792568053412
-0.47136483618750447	-0.4220213234660871
-0.47130380103125447	-0.42872379655363796
-0.47124276587500447	-0.43355608617275454
-0.47118173071875447	-0.4364957471450159
-0.47112069556250447	-0.4375285572599641
-0.47105966040625447	-0.43664858533247797
-0.47099862525000447	-0.43385824426011105
-0.47093759009375447	-0.42916825984715057
-0.47087655493750447	-0.4225976447284287
-0.47081551978125447	-0.4141736077935022
-0.47075448462500447	-0.4039314665655651
-0.47069344946875447	-0.3919144568059994
-0.47063241431250447	-0.37817358555586084
-0.47057137915625447	-0.36276741594494116
-0.47051034400000447	-0.34576175789813446
-0.47044930884375447	-0.32722947530784735
