Time	Frequency
-0.5000212456562494	0.02556903365080771
-0.4999602104999994	0.003546099345944594
-0.4998991753437494	-0.0185187711930361
-0.4998381401874994	-0.04055417263836428
-0.4997771050312494	-0.06248872922085556
-0.4997160698749994	-0.08425128966149015
-0.4996550347187494	-0.10577131610815044
-0.4995939995624994	-0.12697893770094723
-0.4995329644062494	-0.14780527431696275
-0.4994719292499994	-0.16818268804113318
-0.4994108940937494	-0.1880448758577522
-0.4993498589374994	-0.20732725838157337
-0.4992888237812494	-0.22596703238994842
-0.4992277886249994	-0.24390347444298294
-0.4991667534687494	-0.26107814004910307
-0.4991057183124994	-0.27743495671337964
-0.4990446831562494	-0.292920555399861
-0.4989836479999994	-0.3074843107072988
-0.4989226128437494	-0.3210785869297987
-0.4988615776874994	-0.3336588935483695
-0.4988005425312494	-0.3451839600665152
-0.4987395073749994	-0.3556159777351963
-0.4986784722187494	-0.36492064193966567
-0.4986174370624994	-0.3730672829346802
-0.4985564019062494	-0.3800290140851296
-0.4984953667499994	-0.3857827563969069
-0.4984343315937494	-0.39030935561788926
-0.4983732964374994	-0.39359364110027384
-0.4983122612812494	-0.39562446292410897
-0.4982512261249994	-0.3963947486555246
-0.4981901909687494	-0.39590151715124555
-0.4981291558124994	-0.39414589010183454
-0.4980681206562494	-0.39113309720020734
-0.4980070854999994	-0.3868724573440949
-0.4979460503437494	-0.38137734426208925
-0.4978850151874994	-0.374665161743693
-0.4978239800312494	-0.3667572651156392
-0.4977629448749994	-0.35767891552754344
-0.4977019097187494	-0.3474591880540623
-0.4976408745624994	-0.3361308754250129
-0.4975798394062494	-0.3237303932613645
-0.4975188042499994	-0.31029765615044624
-0.4974577690937494	-0.2958759596445699
-0.4973967339374994	-0.28051180290576483
-0.4973356987812494	-0.26425479875693464
-0.4972746636249994	-0.24715747360324863
-0.4972136284687494	-0.2292750749259861
-0.4971525933124994	-0.21066547368260227
-0.4970915581562494	-0.19138889582142732
-0.4970305229999994	-0.17150771692568112
-0.4969694878437494	-0.15108638829938936
-0.4969084526874994	-0.13019107534755572
-0.4968474175312494	-0.10888946324926002
-0.4967863823749994	-0.0872507046275839
-0.4967253472187494	-0.06534495654937848
-0.4966643120624994	-0.04324325164771972
-0.4966032769062494	-0.021017393545729544
-0.4965422417499994	0.0012604969552661967
-0.4964812065937494	0.023518135247452925
-0.4964201714374994	0.04568316199400801
-0.4963591362812494	0.06768363494004129
-0.4962981011249994	0.08944810954818534
-0.4962370659687494	0.11090579907218123
-0.4961760308124994	0.13198708039230264
-0.4961149956562494	0.15262341213194797
-0.4960539604999994	0.17274771700360622
-0.4959929253437494	0.1922946642846919
-0.4959318901874994	0.2112006938674981
-0.4958708550312494	0.22940440197133438
-0.4958098198749994	0.2468466441319021
-0.4957487847187494	0.2634707674201215
-0.4956877495624994	0.27922281984061953
-0.4956267144062494	0.2940516107441701
-0.4955656792499994	0.3079090525377705
-0.4955046440937494	0.3207502236226062
-0.4954436089374994	0.33253343947901637
-0.4953825737812494	0.3432205953572807
-0.4953215386249994	0.3527771077652048
-0.4952605034687494	0.3611720736246293
-0.4951994683124994	0.3683784655884477
-0.4951384331562494	0.3743730927194831
-0.4950773979999994	0.37913674579586876
-0.4950163628437494	0.38265427597766194
-0.4949553276874994	0.3849145986764205
-0.4948942925312494	0.38591075552124454
-0.4948332573749994	0.38563995710346305
-0.4947722222187494	0.38410354766337734
-0.4947111870624994	0.38130704401262233
-0.4946501519062494	0.3772601069489207
-0.4945891167499994	0.37197648839718467
-0.4945280815937494	0.36547402854577976
-0.4944670464374994	0.3577745579966795
-0.4944060112812494	0.34890385969367615
-0.4943449761249994	0.3388915634314731
-0.4942839409687494	0.32777105381917987
-0.4942229058124994	0.3155793920650606
-0.4941618706562494	0.30235711964371825
-0.4941008354999994	0.28814823286099883
-0.4940398003437494	0.27299994621736684
-0.4939787651874994	0.25696256548746454
-0.4939177300312494	0.2400893782742464
-0.4938566948749994	0.22243637902556754
-0.4937956597187494	0.2040621831947178
-0.4937346245624994	0.18502776359283218
-0.4936735894062494	0.16539627903841772
-0.4936125542499994	0.14523289758168995
-0.4935515190937494	0.12460452094636128
-0.4934904839374994	0.10357958826891664
-0.4934294487812494	0.08222790702581576
-0.4933684136249994	0.06062031483025498
-0.4933073784687494	0.03882853226028073
-0.4932463433124994	0.01692493426249582
-0.4931853081562494	-0.005017793039201672
-0.4931242729999994	-0.02692675682142593
-0.4930632378437494	-0.04872920195885684
-0.4930022026874994	-0.07035269152257927
-0.4929411675312494	-0.09172535479879838
-0.4928801323749994	-0.11277618096903459
-0.4928190972187494	-0.133435154872882
-0.4927580620624994	-0.1536335625799902
-0.4926970269062494	-0.17330422299380402
-0.4926359917499994	-0.192381645123264
-0.4925749565937494	-0.21080230015467522
-0.4925139214374994	-0.2285048273396368
-0.4924528862812494	-0.24543022278137577
-0.4923918511249994	-0.26152203202765184
-0.4923308159687494	-0.2767265462532854
-0.4922697808124994	-0.2909929930370456
-0.4922087456562494	-0.304273683537901
-0.4921477104999994	-0.316524180114017
-0.4920866753437494	-0.3277034374970204
-0.4920256401874994	-0.3377739847475384
-0.4919646050312494	-0.3467019595264924
-0.4919035698749994	-0.35445730929277625
-0.4918425347187494	-0.361013870845412
-0.4917814995624994	-0.36634939698573826
-0.4917204644062494	-0.3704457509066198
-0.4916594292499994	-0.37328884034779636
-0.4915983940937494	-0.37486874646872276
-0.4915373589374994	-0.3751797605992141
-0.4914763237812494	-0.37422033730743687
-0.4914152886249994	-0.3719931818982568
-0.4913542534687494	-0.3685051971896593
-0.4912932183124994	-0.363767466763431
-0.4912321831562494	-0.3577952372743812
-0.4911711479999994	-0.3506078570522784
-0.4911101128437494	-0.34222871565893237
-0.4910490776874994	-0.33268516716828916
-0.4909880425312494	-0.32200846311881415
-0.4909270073749994	-0.3102336020641894
-0.4908659722187494	-0.29739927672251126
-0.4908049370624994	-0.28354770891529474
-0.4907439019062494	-0.2687244875738867
-0.4906828667499994	-0.2529785236648667
-0.4906218315937494	-0.23636175037681434
-0.4905607964374994	-0.218929045852384
-0.4904997612812494	-0.20073805259057012
-0.4904387261249994	-0.18184891897818478
-0.4903776909687494	-0.1623241850041455
-0.4903166558124994	-0.14222851679683277
-0.4902556206562494	-0.12162851849370225
-0.4901945854999994	-0.1005925264841322
-0.4901335503437494	-0.07919033627201066
-0.4900725151874994	-0.057493019420892716
-0.4900114800312494	-0.035572678698989876
-0.4899504448749994	-0.01350219354810697
-0.4898894097187494	0.008645009226088718
-0.4898283745624994	0.030795225935597106
-0.4897673394062494	0.05287462405987002
-0.4897063042499994	0.0748096297173334
-0.4896452690937494	0.09652711914459926
-0.4895842339374994	0.11795450084224669
-0.4895231987812494	0.1390202636575816
-0.4894621636249994	0.1596539909821999
-0.4894011284687494	0.17978655619133965
-0.4893400933124994	0.19935063285445126
-0.4892790581562494	0.21828057925296357
-0.4892180229999994	0.23651285128548405
-0.4891569878437494	0.2539862472601213
-0.4890959526874994	0.27064193577458695
-0.4890349175312494	0.2864238294721194
-0.4889738823749994	0.30127867100210387
-0.4889128472187494	0.3151562494739777
-0.4888518120624994	0.3280095499135909
-0.4887907769062494	0.3397949383296038
-0.4887297417499994	0.35047227763812955
-0.4886687065937494	0.36000506249496517
-0.4886076714374994	0.3683606144121079
-0.4885466362812494	0.3755100562247117
-0.4884856011249994	0.3814285370415499
-0.4884245659687494	0.3860952856793302
-0.4883635308124994	0.3894935978612898
-0.4883024956562494	0.39161102913003065
-0.4882414604999994	0.39243934962309934
-0.4881804253437494	0.3919745695246499
-0.4881193901874994	0.3902170214264892
-0.4880583550312494	0.3871713002521425
-0.4879973198749994	0.3828462703104585
-0.4879362847187494	0.3772550505081783
-0.4878752495624994	0.37041495771687405
-0.4878142144062494	0.36234745978827365
-0.4877531792499994	0.35307810146581153
-0.4876921440937494	0.3426364328829444
-0.4876311089374994	0.33105589539053826
-0.4875700737812494	0.3183737383204989
-0.4875090386249994	0.3046308759597257
-0.4874480034687494	0.2898717507053853
-0.4873869683124994	0.27414423617768946
-0.4873259331562494	0.2574993959471797
-0.4872648979999994	0.2399913975096744
-0.4872038628437494	0.2216772947153378
-0.4871428276874994	0.2026168261909069
-0.4870817925312494	0.1828722824799013
-0.4870207573749994	0.16250819204948688
-0.4869597222187494	0.14159123769119686
-0.4868986870624994	0.120189958605924
-0.4868376519062494	0.09837447508985728
-0.4867766167499994	0.07621642980302054
-0.4867155815937494	0.0537885635380727
-0.4866545464374994	0.031164535118331237
-0.4865935112812494	0.008418794648155238
-0.4865324761249994	-0.014373873260572928
-0.4864714409687494	-0.03713843402169417
-0.4864104058124994	-0.05979988345786947
-0.4863493706562494	-0.08228358526430676
-0.4862883354999994	-0.10451538969487151
-0.4862273003437494	-0.12642196538401151
-0.4861662651874994	-0.14793103512932076
-0.4861052300312494	-0.16897157591023387
-0.4860441948749994	-0.18947409200448823
-0.4859831597187494	-0.2093708366684451
-0.4859221245624994	-0.22859604089759494
-0.4858610894062494	-0.24708612247213738
-0.4858000542499994	-0.26477987803605735
-0.4857390190937494	-0.28161878687617653
-0.4856779839374994	-0.2975470542054791
-0.4856169487812494	-0.31251189912056204
-0.4855559136249994	-0.326463774366672
-0.4854948784687494	-0.3393563521370554
-0.4854338433124994	-0.35114687891753465
-0.4853728081562494	-0.3617962443535119
-0.4853117729999994	-0.371269025547299
-0.4852507378437494	-0.37953375217993995
-0.4851897026874994	-0.3865629497829265
-0.4851286675312494	-0.3923331592775485
-0.4850676323749994	-0.39682516911928634
-0.4850065972187494	-0.40002396689046593
-0.4849455620624994	-0.4019187788851085
-0.4848845269062494	-0.4025032390746374
-0.4848234917499994	-0.40177525828885485
-0.4847624565937494	-0.39973710892100695
-0.4847014214374994	-0.39639544572946467
-0.4846403862812494	-0.39176121253029195
-0.4845793511249994	-0.385849660991582
-0.4845183159687494	-0.3786802875348117
-0.4844572808124994	-0.370276770301216
-0.4843962456562494	-0.36066687858752844
-0.4843352104999994	-0.3498824058071659
-0.4842741753437494	-0.33795906673743475
-0.4842131401874994	-0.3249363237457355
-0.4841521050312494	-0.31085735308654766
-0.4840910698749994	-0.29576882966462775
-0.4840300347187494	-0.2797207559556207
-0.4839689995624994	-0.2627664254507489
-0.4839079644062494	-0.24496205291335107
-0.4838469292499994	-0.22636674968532344
-0.4837858940937494	-0.20704228062294874
-0.4837248589374994	-0.1870527764912614
-0.4836638237812494	-0.1664647145249034
-0.4836027886249994	-0.14534641889890812
-0.4835417534687494	-0.12376811483114307
-0.4834807183124994	-0.10180157292516119
-0.4834196831562494	-0.07951971499979933
-0.4833586479999994	-0.056996731600706826
-0.4832976128437494	-0.03430750859386205
-0.4832365776874994	-0.011527468199204263
-0.4831755425312494	0.01126754001316177
-0.4831145073749994	0.03400168992597804
-0.4830534722187494	0.05659935738596412
-0.4829924370624994	0.07898529620874974
-0.4829314019062494	0.10108499651239035
-0.4828703667499994	0.12282492483392463
-0.4828093315937494	0.1441326720582842
-0.4827482964374994	0.1649373027702452
-0.4826872612812494	0.18516956691580239
-0.4826262261249994	0.20476208305388593
-0.4825651909687494	0.22364961437504952
-0.4825041558124994	0.2417692758889569
-0.4824431206562494	0.2590607458514807
-0.4823820854999994	0.2754664492768905
-0.4823210503437494	0.29093176836429296
-0.4822600151874994	0.3054052510419645
-0.4821989800312494	0.3188387208658523
-0.4821379448749994	0.331187493685365
-0.4820769097187494	0.34241052574909997
-0.4820158745624994	0.35247050383558504
-0.4819548394062494	0.36133403726208396
-0.4818938042499994	0.36897172682195767
-0.4818327690937494	0.375358266999031
-0.4817717339374994	0.38047255752214604
-0.4817106987812494	0.38429775765130497
-0.4816496636249994	0.3868213415629631
-0.4815886284687494	0.3880351447118643
-0.4815275933124994	0.3879354080604345
-0.4814665581562494	0.38652277135179175
-0.4814055229999994	0.38380227288711777
-0.4813444878437494	0.37978336168950066
-0.4812834526874994	0.3744798300288416
-0.4812224175312494	0.3679097932196307
-0.4811613823749994	0.3600956336683815
-0.4811003472187494	0.3510638905724231
-0.4810393120624994	0.3408452383924497
-0.4809782769062494	0.3294743152203997
-0.4809172417499994	0.3169896452323909
-0.4808562065937494	0.30343352480858643
-0.4807951714374994	0.2888518331949238
-0.4807341362812494	0.273293939595491
-0.4806731011249994	0.2568124751272204
-0.4806120659687494	0.23946322258048786
-0.4805510308124994	0.2213048825776745
-0.4804899956562494	0.20239887565590076
-0.4804289604999994	0.18280920672317866
-0.4803679253437494	0.16260213694956313
-0.4803068901874994	0.1418460600517059
-0.4802458550312494	0.12061124216047998
-0.4801848198749994	0.09896955562699672
-0.4801237847187494	0.07699426873592431
-0.4800627495624994	0.054759825724021306
-0.4800017144062494	0.03234154629213477
-0.4799406792499994	0.0098153408404707
-0.4798796440937494	-0.012742381263100235
-0.4798186089374994	-0.03525517017651651
-0.4797575737812494	-0.057646696790134774
-0.4796965386249994	-0.0798409587829773
-0.4796355034687494	-0.10176264370495988
-0.4795744683124994	-0.12333732248854284
-0.4795134331562494	-0.14449171498019098
-0.4794523979999994	-0.1651538894718068
-0.4793913628437494	-0.18525362402024448
-0.4793303276874994	-0.2047225085643448
-0.4792692925312494	-0.22349425185932512
-0.4792082573749994	-0.2415049108680747
-0.4791472222187494	-0.2586930400557658
-0.4790861870624994	-0.27500002073034646
-0.4790251519062494	-0.29037010094483967
-0.4789641167499994	-0.3047507147219935
-0.4789030815937494	-0.3180926369204642
-0.4788420464374994	-0.33035006027596936
-0.4787810112812494	-0.34148088790038733
-0.4787199761249994	-0.3514467868647981
-0.4786589409687494	-0.3602133161092467
-0.4785979058124994	-0.36775011066810587
-0.4785368706562494	-0.374030921477537
-0.4784758354999994	-0.37903373650045274
-0.4784148003437494	-0.3827408557762564
-0.4783537651874994	-0.38513894303070684
-0.4782927300312494	-0.3862190834702932
-0.4782316948749994	-0.3859768049644988
-0.4781706597187494	-0.38441211580198126
-0.4781096245624994	-0.38152947766488726
-0.4780485894062494	-0.3773378204414433
-0.4779875542499994	-0.37185050127585145
-0.4779265190937494	-0.36508525974467043
-0.4778654839374994	-0.3570641705760485
-0.4778044487812494	-0.34781356236906585
-0.4777434136249994	-0.3373639364517353
-0.4776823784687494	-0.3257498623709615
-0.4776213433124994	-0.3130098703861321
-0.4775603081562494	-0.29918631390563294
-0.4774992729999994	-0.28432524126343595
-0.4774382378437494	-0.2684762267849627
-0.4773772026874994	-0.251692216862473
-0.4773161675312494	-0.23402936349832776
-0.4772551323749994	-0.2155468008256755
-0.4771940972187494	-0.19630647979903532
-0.4771330620624994	-0.17637297706615054
-0.4770720269062494	-0.1558132032754292
-0.4770109917499994	-0.13469625800173565
-0.4769499565937494	-0.11309318622091383
-0.4768889214374994	-0.09107666751674923
-0.4768278862812494	-0.06872087833166957
-0.4767668511249994	-0.04610117440842247
-0.4767058159687494	-0.02329381332640294
-0.4766447808124994	-0.00037581297736428895
-0.4765837456562494	0.022575455293181203
-0.4765227104999994	0.04548244057396614
-0.4764616753437494	0.06826762586042476
-0.4764006401874994	0.09085398107285228
-0.4763396050312494	0.11316496177558724
-0.4762785698749994	0.13512498718265167
-0.4762175347187494	0.15665961854676444
-0.4761564995624994	0.17769570175353222
-0.4760954644062494	0.19816189017346256
-0.4760344292499994	0.21798853003092197
-0.4759733940937494	0.23710819724169677
-0.4759123589374994	0.2554558255517428
-0.4758513237812494	0.2729687729091014
-0.4757902886249994	0.28958736506416466
-0.4757292534687494	0.30525476307362076
-0.4756682183124994	0.3199173459030666
-0.4756071831562494	0.33352489876574126
-0.4755461479999994	0.34603063855607497
-0.4754851128437494	0.3573915771293669
-0.4754240776874994	0.3675684876990988
-0.4753630425312494	0.3765261348190035
-0.4753020073749994	0.384233410076103
-0.4752409722187494	0.3906633450778721
-0.4751799370624994	0.3957933232924782
-0.4751189019062494	0.39960507639548276
-0.4750578667499994	0.40208475912145464
-0.4749968315937494	0.40322305077926324
-0.4749357964374994	0.40301512524427247
-0.4748747612812494	0.40146069812005913
-0.4748137261249994	0.39856404619622693
-0.4747526909687494	0.39433396694311235
-0.4746916558124994	0.3887837605507494
-0.4746306206562494	0.3819311994084564
-0.4745695854999994	0.37379846819382473
-0.4745085503437494	0.36441205625698353
-0.4744475151874994	0.35380273638328885
-0.4743864800312494	0.3420054077241274
-0.4743254448749994	0.3290589852218086
-0.4742644097187494	0.315006328515219
-0.4742033745624994	0.2998939993152348
-0.4741423394062494	0.28377220583179985
-0.4740813042499994	0.2666945667110991
-0.4740202690937494	0.2487179590315581
-0.4739592339374994	0.22990235413594057
-0.4738981987812494	0.21031051757159386
-0.4738371636249994	0.19000795747880017
-0.4737761284687494	0.1690625495932206
-0.4737150933124994	0.14754437456724226
-0.4736540581562494	0.12552555229509005
-0.4735930229999994	0.10307982332285262
-0.4735319878437494	0.08028248876413827
-0.4734709526874994	0.05721005016506065
-0.4734099175312494	0.03393993384868417
-0.4733488823749994	0.010550347312337718
-0.4732878472187494	-0.012880143446272276
-0.4732268120624994	-0.03627275979893646
-0.4731657769062494	-0.05954878051130505
-0.4731047417499994	-0.08262993533871317
-0.4730437065937494	-0.10543850996508115
-0.4729826714374994	-0.1278976633776333
-0.4729216362812494	-0.1499317875236883
-0.4728606011249994	-0.1714666161106152
-0.4727995659687494	-0.19242951451106252
-0.4727385308124994	-0.2127498476308213
-0.4726774956562494	-0.2323590532369233
-0.4726164604999994	-0.25119093672506215
-0.4725554253437494	-0.26918199481563326
-0.4724943901874994	-0.2862714412823922
-0.4724333550312494	-0.30240157758753744
-0.4723723198749994	-0.3175179391952505
-0.4723112847187494	-0.3315694138356066
-0.4722502495624994	-0.34450854900592315
-0.4721892144062494	-0.35629158474326006
-0.4721281792499994	-0.36687868957088293
-0.4720671440937494	-0.37623406925565994
-0.4720061089374994	-0.3843260547513935
-0.4719450737812494	-0.3911272983403837
-0.4718840386249994	-0.39661477775672355
-0.4718230034687494	-0.4007699204689241
-0.4717619683124994	-0.4035786775576935
-0.4717009331562494	-0.40503154404990804
-0.4716398979999994	-0.40512361455257717
-0.4715788628437494	-0.4038545915560429
-0.4715178276874994	-0.40122879719193877
-0.4714567925312494	-0.39725515079821994
-0.4713957573749994	-0.39194714631337174
-0.4713347222187494	-0.3853228100422856
-0.4712736870624994	-0.3774046402045451
-0.4712126519062494	-0.36821951992859103
-0.4711516167499994	-0.3577986595743834
-0.4710905815937494	-0.3461774526989984
-0.4710295464374994	-0.33339537463667845
-0.4709685112812494	-0.3194958900205822
-0.4709074761249994	-0.3045262078356117
-0.4708464409687494	-0.2885372337750926
-0.4707854058124994	-0.2715833391432017
-0.4707243706562494	-0.253722148358355
-0.4706633354999994	-0.23501445176787236
-0.4706023003437494	-0.21552386967656248
-0.4705412651874994	-0.19531671134937778
-0.4704802300312494	-0.174461768893323
-0.4704191948749994	-0.15303001624503076
-0.4703581597187494	-0.13109442663921989
-0.4702971245624994	-0.10872968733073274
-0.4702360894062494	-0.08601198171115597
-0.4701750542499994	-0.06301869714094344
-0.4701140190937494	-0.039828140598478466
-0.4700529839374994	-0.016519419098461448
-0.4699919487812494	0.006828083135683051
-0.4699309136249994	0.03013477542738477
-0.4698698784687494	0.053321090449397604
-0.4698088433124994	0.0763080761116106
-0.4697478081562494	0.09901722632366981
