Time	Frequency
-0.5000513596250045	-1.0458430691105031e-24
-0.49999032446875447	-1.010224518817928e-24
-0.49992928931250447	-9.704617104345764e-25
-0.49986825415625447	-9.267204703873837e-25
-0.49980721900000447	-8.791832731359054e-25
-0.49974618384375447	-8.280484357163105e-25
-0.49968514868750447	-7.735291991316811e-25
-0.49962411353125447	-7.158530170540663e-25
-0.49956307837500447	-6.552604218948059e-25
-0.49950204321875447	-5.920042376734966e-25
-0.49944100806250447	-5.263483193522701e-25
-0.49937997290625447	-4.585665543666383e-25
-0.49931893775000447	-3.889418317689203e-25
-0.49925790259375447	-3.1776462067779802e-25
-0.49919686743750447	-2.453319972073154e-25
-0.49913583228125447	-1.719462140819371e-25
-0.49907479712500447	-9.791363274948228e-26
-0.49901376196875447	-2.3543292277577025e-26
-0.49895272681250447	5.085439719348021e-26
-0.49889169165625447	1.2496866676876133e-25
-0.49883065650000447	1.9849017629448083e-25
-0.49876962134375447	2.7111177547461937e-25
-0.49870858618750447	3.4253021065289997e-25
-0.49864755103125447	4.124472059387857e-25
-0.49858651587500447	4.805705130799914e-25
-0.49852548071875447	5.466157906689159e-25
-0.49846444556250447	6.103068897684232e-25
-0.49840341040625447	6.71377662971397e-25
-0.49834237525000447	7.295731227244503e-25
-0.49828134009375447	7.846498617039656e-25
-0.49822030493750447	8.36377708295841e-25
-0.49815926978125447	8.845406263447153e-25
-0.49809823462500447	9.2893722358041e-25
-0.49803719946875447	9.693819149795593e-25
-0.49797616431250447	1.005705805379895e-24
-0.49791512915625447	1.03775705108073e-24
-0.49785409400000447	1.0654017510511232e-24
-0.49779305884375447	1.0885245368920978e-24
-0.49773202368750447	1.107028872187484e-24
-0.49767098853125447	1.120837595985014e-24
-0.49760995337500447	1.1298932922945427e-24
-0.49754891821875447	1.1341584033561503e-24
-0.49748788306250447	1.1336154797797514e-24
-0.49742684790625447	1.1282672888723168e-24
-0.49736581275000447	1.1181367216305936e-24
-0.49730477759375447	1.1032667716482784e-24
-0.49724374243750447	1.0837203434877832e-24
-0.49718270728125447	1.0595799934956228e-24
-0.49712167212500447	1.0309475916829656e-24
-0.49706063696875447	9.979439258833274e-25
-0.49699960181250447	9.60708125286226e-25
-0.49693856665625447	9.19397217790666e-25
-0.49687753150000447	8.741853577882826e-25
-0.49681649634375447	8.252631070809838e-25
-0.49675546118750447	7.728367975122604e-25
-0.49669442603125447	7.171274030687384e-25
-0.49663339087500447	6.583699440380083e-25
-0.49657235571875447	5.968121561236074e-25
-0.49651132056250447	5.327137374575129e-25
-0.49645028540625447	4.663452534637851e-25
-0.49638925025000447	3.9798656902170136e-25
-0.49632821509375447	3.2792647645815726e-25
-0.49626717993750447	2.56460766166176e-25
-0.49620614478125447	1.8389111880026152e-25
-0.49614510962500447	1.1052438612030244e-25
-0.49608407446875447	3.667051602160349e-26
-0.49602303931250447	-3.735823780363083e-26
-0.49596200415625447	-1.1124862097948818e-25
-0.49590096900000447	-1.8468817374889454e-25
-0.49583993384375447	-2.5736582364250265e-25
-0.49577889868750447	-3.289737651851085e-25
-0.49571786353125447	-3.9920869087172074e-25
-0.49565682837500447	-4.6777261971081e-25
-0.49559579321875447	-5.3437471388515175e-25
-0.49553475806250447	-5.987322469401046e-25
-0.49547372290625447	-6.605717368905856e-25
-0.49541268775000447	-7.196301554578075e-25
-0.49535165259375447	-7.756561910776873e-25
-0.49529061743750447	-8.284110916554279e-25
-0.49522958228125447	-8.77669760264416e-25
-0.49516854712500447	-9.232217660647551e-25
-0.49510751196875447	-9.648721202206412e-25
-0.49504647681250447	-1.0024422705129217e-24
-0.49498544165625447	-1.0357706479569385e-24
-0.49492440650000447	-1.0647135503933282e-24
-0.49486337134375447	-1.0891456488395598e-24
-0.49480233618750447	-1.1089605178367997e-24
-0.49474130103125447	-1.124071228977881e-24
-0.49468026587500447	-1.1344104931253993e-24
-0.49461923071875447	-1.139931170697498e-24
-0.49455819556250447	-1.140606433304134e-24
-0.49449716040625447	-1.1364297331837847e-24
-0.49443612525000447	-1.1274150768914772e-24
-0.49437509009375447	-1.1135968220737355e-24
-0.49431405493750447	-1.0950295721109622e-24
-0.49425301978125447	-1.0717880048657209e-24
-0.49419198462500447	-1.0439665165499955e-24
-0.49413094946875447	-1.0116788883769836e-24
-0.49406991431250447	-9.750577373941428e-25
-0.49400887915625447	-9.342540846756128e-25
-0.49394784400000447	-8.894366344603245e-25
-0.49388680884375447	-8.407910962683314e-25
-0.49382577368750447	-7.8851946921593225e-25
-0.49376473853125447	-7.328391091688966e-25
-0.49370370337500447	-6.739819251612627e-25
-0.49364266821875447	-6.12193315966646e-25
-0.49358163306250447	-5.477312225369207e-25
-0.49352059790625447	-4.808649812355148e-25
-0.49345956275000447	-4.11874214358594e-25
-0.49339852759375447	-3.410478747151735e-25
-0.49333749243750447	-2.6868249262815203e-25
-0.49327645728125447	-1.950815111132316e-25
-0.49321542212500447	-1.2055392644875066e-25
-0.49315438696875447	-4.541234518824588e-26
-0.49309335181250447	3.002732331273031e-26
-0.49303231665625447	1.0544786109295453e-25
-0.49297128150000447	1.8053214146988291e-25
-0.49291024634375447	2.549638710649702e-25
-0.49284921118750447	3.2842955483350066e-25
-0.49278817603125447	4.00619483781587e-25
-0.49272714087500447	4.712290117627044e-25
-0.49266610571875447	5.399601089741147e-25
-0.49260507056250447	6.065223557761578e-25
-0.49254403540625447	6.706341598327364e-25
-0.49248300025000447	7.320243202050098e-25
-0.49242196509375447	7.904327196178973e-25
-0.49236092993750447	8.456114901093162e-25
-0.49229989478125447	8.973265779233395e-25
-0.49223885962500447	9.453579997431376e-25
-0.49217782446875447	9.895011893466828e-25
-0.49211678931250447	1.0295679827132926e-24
-0.49205575415625447	1.065387020476048e-24
-0.49199471900000447	1.0968048470258559e-24
-0.49193368384375447	1.1236863520911616e-24
-0.49187264868750447	1.1459154340544976e-24
-0.49181161353125447	1.1633955205878704e-24
-0.49175057837500447	1.1760498833776083e-24
-0.49168954321875447	1.1838220977402922e-24
-0.49162850806250447	1.186676226271737e-24
-0.49156747290625447	1.1845969693232567e-24
-0.49150643775000447	1.1775897697256028e-24
-0.49144540259375447	1.1656808197316428e-24
-0.49138436743750447	1.1489169193668479e-24
-0.49132333228125447	1.1273652653742779e-24
-0.49126229712500447	1.1011133276568182e-24
-0.49120126196875447	1.0702683041488927e-24
-0.49114022681250447	1.034956724408583e-24
-0.49107919165625447	9.953241460644699e-25
-0.49101815650000447	9.515341535869266e-25
-0.49095712134375447	9.037679828443233e-25
-0.49089608618750447	8.522238047105896e-25
-0.49083505103125447	7.971155537085623e-25
-0.49077401587500447	7.386723617627297e-25
-0.49071298071875447	6.771375764455236e-25
-0.49065194556250447	6.127675378892053e-25
-0.49059091040625447	5.458305932093259e-25
-0.49052987525000447	4.766061945204053e-25
-0.49046884009375447	4.0538338296500035e-25
-0.49040780493750447	3.3245968021403005e-25
-0.49034676978125447	2.5814008390614205e-25
-0.49028573462500447	1.8273542675410009e-25
-0.49022469946875447	1.0656124791313238e-25
-0.49016366431250447	2.9936513145676946e-26
-0.49010262915625447	-4.681783739388989e-26
-0.49004159400000447	-1.233802418089681e-25
-0.48998055884375447	-1.9942979590305381e-25
-0.48991952368750447	-2.7464758206016597e-25
-0.48985848853125447	-3.4871817994220033e-25
-0.48979745337500447	-4.21330911664954e-25
-0.48973641821875447	-4.921809994426726e-25
-0.48967538306250447	-5.609711117080773e-25
-0.48961434790625447	-6.274125577352547e-25
-0.48955331275000447	-6.912262833024333e-25
-0.48949227759375447	-7.521443805365186e-25
-0.48943124243750447	-8.099110479968286e-25
-0.48937020728125447	-8.642836215913616e-25
-0.48930917212500447	-9.150337724605586e-25
-0.48924813696875447	-9.619483743906294e-25
-0.48918710181250447	-1.0048304070303915e-24
-0.48912606665625447	-1.043499780655054e-24
-0.48906503150000447	-1.077794230639792e-24
-0.48900399634375447	-1.1075698388911364e-24
-0.48894296118750447	-1.1327017408033238e-24
-0.48888192603125447	-1.1530847036202816e-24
-0.48882089087500447	-1.168633432676568e-24
-0.48875985571875447	-1.179283121476027e-24
-0.48869882056250447	-1.184989583317963e-24
-0.48863778540625447	-1.1857295207661316e-24
-0.48857675025000447	-1.1815006406484903e-24
-0.48851571509375447	-1.1723216075394925e-24
-0.48845467993750447	-1.1582320603807203e-24
-0.48839364478125447	-1.139292359184402e-24
-0.48833260962500447	-1.1155834115969264e-24
-0.48827157446875447	-1.0872063197102282e-24
-0.48821053931250447	-1.0542819013485072e-24
-0.48814950415625447	-1.0169502961494563e-24
-0.48808846900000447	-9.753702732691258e-25
-0.48802743384375447	-9.297185957674321e-25
-0.48796639868750447	-8.801893663998262e-25
-0.48790536353125447	-8.269930284369329e-25
-0.48784432837500447	-7.7035567153690905e-25
-0.48778329321875447	-7.1051797921791895e-25
-0.48772225806250447	-6.477341412415564e-25
-0.48766122290625447	-5.822710092989064e-25
-0.48760018775000447	-5.144067739203464e-25
-0.48753915259375447	-4.444296699305597e-25
-0.48747811743750447	-3.7263724135874663e-25
-0.48741708228125447	-2.993346133622041e-25
-0.48735604712500447	-2.2483312852422237e-25
-0.48729501196875447	-1.4944980111219397e-25
-0.48723397681250447	-7.350484078693824e-26
-0.48717294165625447	2.678817913139074e-27
-0.48711190650000447	7.877702228273407e-26
-0.48705087134375447	1.5446649825976609e-25
-0.48698983618750447	2.2942501747053465e-25
-0.48692880103125447	3.0333387964404696e-25
-0.48686776587500447	3.7587869535688003e-25
-0.48680673071875447	4.467506146738197e-25
-0.48674569556250447	5.156482411495963e-25
-0.48668466040625447	5.82278267813154e-25
-0.48662362525000447	6.463570575991501e-25
-0.48656259009375447	7.076118076379888e-25
-0.48650155493750447	7.657817412637969e-25
-0.48644051978125447	8.206191699556588e-25
-0.48637948462500447	8.71890425916517e-25
-0.48631844946875447	9.193771950808962e-25
-0.48625741431250447	9.628772280663359e-25
-0.48619637915625447	1.0022050181939241e-24
-0.48613534400000447	1.037193077801953e-24
-0.48607430884375447	1.0676923342551249e-24
-0.48601327368750447	1.0935726628201601e-24
-0.48595223853125447	1.1147238390253653e-24
-0.48589120337500447	1.1310556968870034e-24
-0.48583016821875447	1.1424985716333591e-24
-0.48576913306250447	1.1490037649701953e-24
-0.48570809790625447	1.1505435557669562e-24
-0.48564706275000447	1.1471114480900323e-24
-0.48558602759375447	1.13872222192195e-24
-0.48552499243750447	1.1254117550423898e-24
-0.48546395728125447	1.1072370342083322e-24
-0.48540292212500447	1.0842758092750024e-24
-0.48534188696875447	1.0566262948143097e-24
-0.48528085181250447	1.0244068424235015e-24
-0.48521981665625447	9.877552740247707e-25
-0.48515878150000447	9.468284769805548e-25
-0.48509774634375447	9.018016814435896e-25
-0.48503671118750447	8.528676285164619e-25
-0.48497567603125447	8.00235898900173e-25
-0.48491464087500447	7.441319641260592e-25
-0.48485360571875447	6.847962136418544e-25
-0.48479257056250447	6.224829229395185e-25
-0.48473153540625447	5.574592651821054e-25
-0.48467050025000447	4.900040851252131e-25
-0.48460946509375447	4.2040668870059005e-25
-0.48454842993750447	3.489657934442254e-25
-0.48448739478125447	2.7598799146729664e-25
-0.48442635962500447	2.0178665294299844e-25
-0.48436532446875447	1.2668059988698697e-25
-0.48430428931250447	5.099239102315608e-26
-0.48424325415625447	-2.4952425251919205e-26
-0.48418221900000447	-1.0082722931369835e-25
-0.48412118384375447	-1.7630573055599677e-25
-0.48406014868750447	-2.510627358787105e-25
-0.48399911353125447	-3.2477644119950626e-25
-0.48393807837500447	-3.9712913476490145e-25
-0.48387704321875447	-4.678086890751263e-25
-0.48381600806250447	-5.365103169688854e-25
-0.48375497290625447	-6.029371570461292e-25
-0.48369393775000447	-6.668021702587826e-25
-0.48363290259375447	-7.2782918702686935e-25
-0.48357186743750447	-7.857538797397136e-25
-0.48351083228125447	-8.403251593099839e-25
-0.48344979712500447	-8.9130615491164e-25
-0.48338876196875447	-9.384753263057495e-25
-0.48332772681250447	-9.816272184615551e-25
-0.48326669165625447	-1.0205734890141964e-24
-0.48320565650000447	-1.0551438376307168e-24
-0.48314462134375447	-1.0851864732414121e-24
-0.48308358618750447	-1.1105689617376926e-24
-0.48302255103125447	-1.1311788054406801e-24
-0.48296151587500447	-1.1469238286804674e-24
-0.48290048071875447	-1.157732689123714e-24
-0.48283944556250447	-1.1635551168957945e-24
-0.48277841040625447	-1.1643622049707501e-24
-0.48271737525000447	-1.160146527174518e-24
-0.48265634009375447	-1.1509221289706972e-24
-0.48259530493750447	-1.1367245688010062e-24
-0.48253426978125447	-1.1176107353685602e-24
-0.48247323462500447	-1.0936585829309665e-24
-0.48241219946875447	-1.0649668663002026e-24
-0.48235116431250447	-1.0316547590898334e-24
-0.48229012915625447	-9.938611873799686e-25
-0.48222909400000447	-9.517444687180972e-25
-0.48216805884375447	-9.054815830588024e-25
-0.48210702368750447	-8.552671889406645e-25
-0.48204598853125447	-8.013132410179689e-25
-0.48198495337500447	-7.438477194671229e-25
-0.48192391821875447	-6.831137570884588e-25
-0.48186288306250447	-6.193688504842803e-25
-0.48180184790625447	-5.528832668186192e-25
-0.48174081275000447	-4.8393943240778445e-25
-0.48167977759375447	-4.12830480774519e-25
-0.48161874243750447	-3.398587658587898e-25
-0.48155770728125447	-2.653351545479072e-25
-0.48149667212500447	-1.895771836640728e-25
-0.48143563696875447	-1.1290780681245462e-25
-0.48137460181250447	-3.5654332196374554e-26
-0.48131356665625447	4.185338035885836e-26
-0.48125253150000447	1.1928413687621443e-25
-0.48119149634375447	1.9630686121737113e-25
-0.48113046118750447	2.725919345219975e-25
-0.48106942603125447	3.478126805198405e-25
-0.48100839087500447	4.216469958145916e-25
-0.48094735571875447	4.937780952844618e-25
-0.48088632056250447	5.638965653421083e-25
-0.48082528540625447	6.317014693700135e-25
-0.48076425025000447	6.96901182571622e-25
-0.48070321509375447	7.59215524081849e-25
-0.48064217993750447	8.183762220983052e-25
-0.48058114478125447	8.74128209441115e-25
-0.48052010962500447	9.262312006604893e-25
-0.48045907446875447	9.744601597196335e-25
-0.48039803931250447	1.018606322043285e-24
-0.48033700415625447	1.05847862426171e-24
-0.48027596900000447	1.0939040513386247e-24
-0.48021493384375447	1.124728228292582e-24
-0.48015389868750447	1.1508168069401278e-24
-0.48009286353125447	1.1720553899340928e-24
-0.48003182837500447	1.1883501997437528e-24
-0.47997079321875447	1.1996287775780599e-24
-0.47990975806250447	1.2058398863551316e-24
-0.47984872290625447	1.2069540353621437e-24
-0.47978768775000447	1.2029635260199708e-24
-0.47972665259375447	1.1938824493508956e-24
-0.47966561743750447	1.1797467434778931e-24
-0.47960458228125447	1.1606139448154007e-24
-0.47954354712500447	1.136563008638937e-24
-0.47948251196875447	1.1076940306474457e-24
-0.47942147681250447	1.074127682133967e-24
-0.47936044165625447	1.0360048544118979e-24
-0.47929940650000447	9.934860218767543e-25
-0.47923837134375447	9.467504848032347e-25
-0.47917733618750447	8.959957300613717e-25
-0.47911630103125447	8.414364905579903e-25
-0.47905526587500447	7.83303966886991e-25
-0.47899423071875447	7.218446303441011e-25
-0.47893319556250447	6.573193814751483e-25
-0.47887216040625447	5.900024020303025e-25
-0.47881112525000447	5.201797838447586e-25
-0.47875009009375447	4.481486197247946e-25
-0.47868905493750447	3.742155048074038e-25
-0.47862801978125447	2.986953425249024e-25
-0.47856698462500447	2.21909805815003e-25
-0.47850594946875447	1.4418633917887236e-25
-0.47844491431250447	6.585642993600406e-26
-0.47838387915625447	-1.2745982828961148e-26
-0.47832284400000447	-9.128514125000428e-26
-0.47826180884375447	-1.6942592706754264e-25
-0.47820077368750447	-2.4683469329915464e-25
-0.47813973853125447	-3.2318056281702898e-25
-0.47807870337500447	-3.9813754177616434e-25
-0.47801766821875447	-4.713852013976229e-25
-0.47795663306250447	-5.426104120170549e-25
-0.47789559790625447	-6.115086724902609e-25
-0.47783456275000447	-6.777853689818347e-25
-0.47777352759375447	-7.411570329082525e-25
-0.47771249243750447	-8.013525605327299e-25
-0.47765145728125447	-8.581145679434428e-25
-0.47759042212500447	-9.112001072038959e-25
-0.47752938696875447	-9.603821137828118e-25
-0.47746835181250447	-1.0054502810970413e-24
-0.47740731665625447	-1.0462117184756318e-24
-0.47734628150000447	-1.0824922025135608e-24
-0.47728524634375447	-1.114136628906975e-24
-0.47722421118750447	-1.1410097389894223e-24
-0.47716317603125447	-1.1629968813332859e-24
-0.47710214087500447	-1.1800042818982114e-24
-0.47704110571875447	-1.1919595703878623e-24
-0.47698007056250447	-1.1988121524015195e-24
-0.47691903540625447	-1.2005333122993444e-24
-0.47685800025000447	-1.1971164139708045e-24
-0.47679696509375447	-1.188576971591304e-24
-0.47673592993750447	-1.1749524994491556e-24
-0.47667489478125447	-1.1563024237137567e-24
-0.47661385962500447	-1.132707857811342e-24
-0.47655282446875447	-1.1042711623668084e-24
-0.47649178931250447	-1.0711155861548568e-24
-0.47643075415625447	-1.0333848010459233e-24
-0.47636971900000447	-9.912421031634747e-25
-0.47630868384375447	-9.44869907371616e-25
-0.47624764868750447	-8.94468884040961e-25
-0.47618661353125447	-8.402570694038712e-25
-0.47612557837500447	-7.824690283681518e-25
-0.47606454321875447	-7.213546762038814e-25
-0.47600350806250447	-6.571785232313254e-25
-0.47594247290625447	-5.90218095142377e-25
-0.47588143775000447	-5.207630733342979e-25
-0.47582040259375447	-4.491141228020691e-25
-0.47575936743750447	-3.7558110566962853e-25
-0.47569833228125447	-3.004822791027839e-25
-0.47563729712500447	-2.241427451567395e-25
-0.47557626196875447	-1.4689287904741843e-25
-0.47551522681250447	-6.906706531769376e-26
-0.47545419165625447	8.997622361102427e-27
-0.47539315650000447	8.696319953082994e-26
-0.47533212134375447	1.6449200671573994e-25
-0.47527108618750447	2.4124813415327924e-25
-0.47521005103125447	3.168991067247624e-25
-0.47514901587500447	3.911170127551664e-25
-0.47508798071875447	4.635802525469973e-25
-0.47502694556250447	5.3397462882523295e-25
-0.47496591040625447	6.019948692998439e-25
-0.47490487525000447	6.673461367218438e-25
-0.47484384009375447	7.297447139233803e-25
-0.47478280493750447	7.889199310621753e-25
-0.47472176978125447	8.446150222051579e-25
-0.47466073462500447	8.965880124972034e-25
-0.47459969946875447	9.446133042726484e-25
-0.47453866431250447	9.884821857021206e-25
-0.47447762915625447	1.0280040224953372e-24
-0.47441659400000447	1.06300692472542e-24
-0.47435555884375447	1.093338573902246e-24
-0.47429452368750447	1.1188670353994098e-24
-0.47423348853125447	1.1394809320423178e-24
-0.47417245337500447	1.1550903875738308e-24
-0.47411141821875447	1.165627220150847e-24
-0.47405038306250447	1.1710451413345935e-24
-0.47398934790625447	1.1713201938470483e-24
-0.47392831275000447	1.1664507032474388e-24
-0.47386727759375447	1.1564573738238644e-24
-0.47380624243750447	1.1413831363966697e-24
-0.47374520728125447	1.1212930673981528e-24
-0.47368417212500447	1.096274036896154e-24
-0.47362313696875447	1.0664343499245852e-24
-0.47356210181250447	1.0319033759289544e-24
-0.47350106665625447	9.928308121849768e-25
-0.47344003150000447	9.493862982039797e-25
-0.47337899634375447	9.01758423101091e-25
-0.47331796118750447	8.501540873900303e-25
-0.47325692603125447	7.947976337943538e-25
-0.47319589087500447	7.359296447499654e-25
-0.47313485571875447	6.738063046737182e-25
-0.47307382056250447	6.086978403087508e-25
-0.47301278540625447	5.408876813611046e-25
-0.47295175025000447	4.706712338023794e-25
-0.47289071509375447	3.983542682119755e-25
-0.47282967993750447	3.242520331372262e-25
-0.47276864478125447	2.4868758736307693e-25
-0.47270760962500447	1.71990502432384e-25
-0.47264657446875447	9.44955032650647e-26
-0.47258553931250447	1.654080811049126e-26
-0.47252450415625447	-6.153304163125227e-26
-0.47246346900000447	-1.393849349485792e-25
-0.47240243384375447	-2.1667459812793568e-25
-0.47234139868750447	-2.930638447480962e-25
-0.47228036353125447	-3.6821851818278695e-25
