Time	Frequency
-0.5000147814687637	-8.297981296747682e-25
-0.49995374631251366	-8.107913910251006e-25
-0.49989271115626366	-7.873121843550806e-25
-0.49983167600001366	-7.594892075621249e-25
-0.49977064084376366	-7.27475070292741e-25
-0.49970960568751366	-6.914453809224175e-25
-0.49964857053126366	-6.515979702558923e-25
-0.49958753537501366	-6.081516568485343e-25
-0.49952650021876366	-5.6134506302483625e-25
-0.49946546506251366	-5.114354826671853e-25
-0.49940442990626366	-4.586972332864899e-25
-0.49934339475001366	-4.03420303301891e-25
-0.49928235959376366	-3.4590882861162685e-25
-0.49922132443751366	-2.8647920949575084e-25
-0.49916028928126366	-2.2545859768994384e-25
-0.49909925412501366	-1.6318299173936272e-25
-0.49903821896876366	-9.999538374226226e-26
-0.49897718381251366	-3.624398858337074e-26
-0.49891614865626366	2.771986240610703e-26
-0.49885511350001366	9.154340720212352e-26
-0.49879407834376366	1.548745483408713e-25
-0.49873304318751366	2.173639261330561e-25
-0.49867200803126366	2.7866639033581915e-25
-0.49861097287501366	3.384433028181155e-25
-0.49854993771876366	3.963645036545869e-25
-0.49848890256251366	4.521095062447638e-25
-0.49842786740626366	5.05369886606354e-25
-0.49836683225001366	5.558509939776326e-25
-0.49830579709376366	6.032727877849869e-25
-0.49824476193751366	6.473724124669064e-25
-0.49818372678126366	6.8790521950486225e-25
-0.49812269162501366	7.246456317176741e-25
-0.49806165646876366	7.57389342532301e-25
-0.49800062131251366	7.859537400986423e-25
-0.49793958615626366	8.101791668800969e-25
-0.49787855100001366	8.29929827682729e-25
-0.49781751584376366	8.450944425032692e-25
-0.49775648068751366	8.555870947479185e-25
-0.49769544553126366	8.613473694581262e-25
-0.49763441037501366	8.623410529978279e-25
-0.49757337521876366	8.585601166067098e-25
-0.49751234006251366	8.500228175651557e-25
-0.49745130490626366	8.367736950619399e-25
-0.49739026975001366	8.188831990814216e-25
-0.49732923459376366	7.96447486248763e-25
-0.49726819943751366	7.6958773051204e-25
-0.49720716428126366	7.384495575945572e-25
-0.49714612912501366	7.032023743827533e-25
-0.49708509396876366	6.640381578364414e-25
-0.49702405881251366	6.211706020376227e-25
-0.49696302365626366	5.748341153069995e-25
-0.49690198850001366	5.252821457631923e-25
-0.49684095334376366	4.727860043190001e-25
-0.49677991818751366	4.176335857353832e-25
-0.49671888303126366	3.6012738451191213e-25
-0.49665784787501366	3.005831016711591e-25
-0.49659681271876366	2.3932789727250194e-25
-0.49653577756251366	1.7669843029948684e-25
-0.49647474240626366	1.1303930361356758e-25
-0.49641370725001366	4.8700809010403925e-26
-0.49635267209376366	-1.5962717461476922e-26
-0.49629163693751366	-8.05949632982097e-26
-0.49623060178126366	-1.4483962807602237e-25
-0.49616956662501366	-2.083421993602302e-25
-0.49610853146876366	-2.7075232738849177e-25
-0.49604749631251366	-3.3172520084498154e-25
-0.49598646115626366	-3.909238391187909e-25
-0.49592542600001366	-4.480210070862593e-25
-0.49586439084376366	-5.02700591104537e-25
-0.49580335568751366	-5.546597871873156e-25
-0.49574232053126366	-6.036106110342996e-25
-0.49568128537501366	-6.492814917795405e-25
-0.49562025021876366	-6.914187790577505e-25
-0.49555921506251366	-7.297880761939322e-25
-0.49549817990626366	-7.641757782633718e-25
-0.49543714475001366	-7.943900521969205e-25
-0.49537610959376366	-8.202618726619769e-25
-0.49531507443751366	-8.416461781274958e-25
-0.49525403928126366	-8.584225433534605e-25
-0.49519300412501366	-8.704958376879722e-25
-0.49513196896876366	-8.777968271434826e-25
-0.49507093381251366	-8.80282557700515e-25
-0.49500989865626366	-8.779366086734956e-25
-0.49494886350001366	-8.70769154370081e-25
-0.49488782834376366	-8.588169773424554e-25
-0.49482679318751366	-8.421432823963817e-25
-0.49476575803126366	-8.208372745713317e-25
-0.49470472287501366	-7.9501381426837e-25
-0.49464368771876366	-7.648127118835791e-25
-0.49458265256251366	-7.3039791161550385e-25
-0.49452161740626366	-6.919568000459278e-25
-0.49446058225001366	-6.496989865350556e-25
-0.49439954709376366	-6.038551788518484e-25
-0.49433851193751366	-5.5467609327427775e-25
-0.49427747678126366	-5.024308754479255e-25
-0.49421644162501366	-4.474057052155272e-25
-0.49415540646876366	-3.8990225675125212e-25
-0.49409437131251366	-3.3023600870248474e-25
-0.49403333615626366	-2.687345603061854e-25
-0.49397230100001366	-2.0573558243996833e-25
-0.49391126584376366	-1.4158541904852404e-25
-0.49385023068751366	-7.663683842130598e-26
-0.49378919553126366	-1.1246895772958668e-26
-0.49372816037501366	5.422429621675056e-26
-0.49366712521876366	1.194163935068193e-25
-0.49360609006251366	1.8397039698056201e-25
-0.49354505490626366	2.475304604606693e-25
-0.49348401975001366	3.097463701781145e-25
-0.49342298459376366	3.702750317343717e-25
-0.49336194943751366	4.287825737620434e-25
-0.49330091428126366	4.849461293863472e-25
-0.49323987912501366	5.384557685224494e-25
-0.49317884396876366	5.890159643453081e-25
-0.49311780881251366	6.363474001798727e-25
-0.49305677365626366	6.801886321916494e-25
-0.49299573850001366	7.202971805121652e-25
-0.49293470334376366	7.564513191630205e-25
-0.49287366818751366	7.884509813158501e-25
-0.49281263303126366	8.161189632163415e-25
-0.49275159787501366	8.393020709122369e-25
-0.49269056271876366	8.578717239747789e-25
-0.49262952756251366	8.717248739921101e-25
-0.49256849240626366	8.80784485836981e-25
-0.49250745725001366	8.850000069009198e-25
-0.49244642209376366	8.843476872880048e-25
-0.49238538693751366	8.788306552670358e-25
-0.49232435178126366	8.684789394982823e-25
-0.49226331662501366	8.53349377239487e-25
-0.49220228146876366	8.33525195817985e-25
-0.49214124631251366	8.091156416908757e-25
-0.49208021115626366	7.802554043144267e-25
-0.49201917600001366	7.471037456922508e-25
-0.49195814084376366	7.098438604344645e-25
-0.49189710568751366	6.686815851197155e-25
-0.49183607053126366	6.238445351462521e-25
-0.49177503537501366	5.75580703734149e-25
-0.49171400021876366	5.24157015834727e-25
-0.49165296506251366	4.698581920504288e-25
-0.49159192990626366	4.12984668350686e-25
-0.49153089475001366	3.538514441612201e-25
-0.49146985959376366	2.9278604738283364e-25
-0.49140882443751366	2.3012665995350335e-25
-0.49134778928126366	1.6622061762030208e-25
-0.49128675412501366	1.0142202856740493e-25
-0.49122571896876366	3.609010300285428e-26
-0.49116468381251366	-2.9412849709713084e-26
-0.49110364865626366	-9.472359756203185e-26
-0.49104261350001366	-1.5947988603332653e-25
-0.49098157834376366	-2.233223592753964e-25
-0.49092054318751366	-2.8589676274108895e-25
-0.49085950803126366	-3.468558469221317e-25
-0.49079847287501366	-4.0586112308663445e-25
-0.49073743771876366	-4.625849709218884e-25
-0.49067640256251366	-5.167123849963465e-25
-0.49061536740626366	-5.679426984788622e-25
-0.49055433225001366	-6.159912603330744e-25
-0.49049329709376366	-6.605910997658649e-25
-0.49043226193751366	-7.014942918264277e-25
-0.49037122678126366	-7.384734521429795e-25
-0.49031019162501366	-7.713230278254491e-25
-0.49024915646876366	-7.998602230332916e-25
-0.49018812131251366	-8.239263572356104e-25
-0.49012708615626366	-8.433875269037266e-25
-0.49006605100001366	-8.581353872563541e-25
-0.49000501584376366	-8.680878640546174e-25
-0.48994398068751366	-8.731894959871404e-25
-0.48988294553126366	-8.734118692806702e-25
-0.48982191037501366	-8.687536962666471e-25
-0.48976087521876366	-8.592408575766202e-25
-0.48969984006251366	-8.449263244866007e-25
-0.48963880490626366	-8.258897826628822e-25
-0.48957776975001366	-8.02237254284745e-25
-0.48951673459376366	-7.741005551899086e-25
-0.48945569943751366	-7.41636430579772e-25
-0.48939466428126366	-7.050258883156627e-25
-0.48933362912501366	-6.644730380820129e-25
-0.48927259396876366	-6.202040369577065e-25
-0.48921155881251366	-5.724658052521967e-25
-0.48915052365626366	-5.215247078680789e-25
-0.48908948850001366	-4.676651439129772e-25
-0.48902845334376366	-4.111875618706158e-25
-0.48896741818751366	-3.524074756660185e-25
-0.48890638303126366	-2.916532271972767e-25
-0.48884534787501366	-2.2926400806577955e-25
-0.48878431271876366	-1.6558863396037913e-25
-0.48872327756251366	-1.0098304725603779e-25
-0.48866224240626366	-3.580842027714226e-26
-0.48860120725001366	2.9570762106036765e-26
-0.48854017209376366	9.478859083560723e-26
-0.48847913693751366	1.5948007053185663e-25
-0.48841810178126366	2.2328308134871183e-25
-0.48835706662501366	2.858400860094659e-25
-0.48829603146876366	3.468007655404828e-25
-0.48823499631251366	4.05823175863441e-25
-0.48817396115626366	4.625762521625974e-25
-0.48811292600001366	5.167417862180085e-25
-0.48805189084376366	5.680152631304007e-25
-0.48799085568751366	6.161087358442021e-25
-0.48792982053126366	6.607518334894539e-25
-0.48786878537501366	7.016931158591933e-25
-0.48780775021876366	7.387019731590831e-25
-0.48774671506251366	7.715696028282515e-25
-0.48768567990626366	8.001102779248474e-25
-0.48762464475001366	8.241623338227936e-25
-0.48756360959376366	8.435892092103478e-25
-0.48750257443751366	8.582800860955728e-25
-0.48744153928126366	8.68150609841104e-25
-0.48738050412501366	8.731433473210812e-25
-0.48731946896876366	8.732280949080303e-25
-0.48725843381251366	8.684020933525389e-25
-0.48719739865626366	8.5869006515528e-25
-0.48713636350001366	8.441440528307705e-25
-0.48707532834376366	8.248431505763962e-25
-0.48701429318751366	8.008931669013425e-25
-0.48695325803126366	7.724258065794218e-25
-0.48689222287501366	7.395983124986043e-25
-0.48683118771876366	7.025922593969548e-25
-0.48677015256251366	6.616126549335686e-25
-0.48670911740626366	6.168870747559091e-25
-0.48664808225001366	5.686638334033763e-25
-0.48658704709376366	5.172111860054781e-25
-0.48652601193751366	4.62815583571317e-25
-0.48646497678126366	4.0577992199297346e-25
-0.48640394162501366	3.464221747802066e-25
-0.48634290646876366	2.8507348865870305e-25
-0.48628187131251366	2.220762504305816e-25
-0.48622083615626366	1.5778221111639843e-25
-0.48615980100001366	9.255070183231031e-26
-0.48609876584376366	2.674644230380069e-26
-0.48603773068751366	-3.9262468939458123e-26
-0.48597669553126366	-1.051066595139679e-25
-0.48591566037501366	-1.7041730456600616e-25
-0.48585462521876366	-2.348284398323598e-25
-0.48579359006251366	-2.9797906843606935e-25
-0.48573255490626366	-3.5951485438471993e-25
-0.48567151975001366	-4.190903329024099e-25
-0.48561048459376366	-4.763708891185918e-25
-0.48554944943751366	-5.310346435427145e-25
-0.48548841428126366	-5.827739261128762e-25
-0.48542737912501366	-6.312974449570589e-25
-0.48536634396876366	-6.763318311791836e-25
-0.48530530881251366	-7.176228053048729e-25
-0.48524427365626366	-7.549370983297362e-25
-0.48518323850001366	-7.8806361253802875e-25
-0.48512220334376366	-8.168143914244077e-25
-0.48506116818751366	-8.410259259966288e-25
-0.48500013303126366	-8.605601469816719e-25
-0.48493909787501366	-8.753048964566986e-25
-0.48487806271876366	-8.851748502487655e-25
-0.48481702756251366	-8.901119406764006e-25
-0.48475599240626366	-8.900855992300913e-25
-0.48469495725001366	-8.850930925032883e-25
-0.48463392209376366	-8.751594301540218e-25
-0.48457288693751366	-8.603372925340518e-25
-0.48451185178126366	-8.407067584422855e-25
-0.48445081662501366	-8.163748805765473e-25
-0.48438978146876366	-7.874750210945182e-25
-0.48432874631251366	-7.541661941369752e-25
-0.48426771115626366	-7.16632259341606e-25
-0.48420667600001366	-6.750807040867007e-25
-0.48414564084376366	-6.297415643477443e-25
-0.48408460568751366	-5.808664635554087e-25
-0.48402357053126366	-5.287266419873606e-25
-0.48396253537501366	-4.736117950417244e-25
-0.48390150021876366	-4.158286929484961e-25
-0.48384046506251366	-3.5569879276778632e-25
-0.48377942990626366	-2.935570683369274e-25
-0.48371839475001366	-2.297499943556714e-25
-0.48365735959376366	-1.6463329784733182e-25
-0.48359632443751366	-9.857036538347245e-26
-0.48353528928126366	-3.193001066440767e-26
-0.48347425412501366	3.491552489363777e-26
-0.48341321896876366	1.0159275614726123e-25
-0.48335218381251366	1.6772897954711155e-25
-0.48329114865626366	2.3295411317744396e-25
-0.48323011350001366	2.969034265948414e-25
-0.48316907834376366	3.5921894170934786e-25
-0.48310804318751366	4.19551522788732e-25
-0.48304700803126366	4.775634133559024e-25
-0.48298597287501366	5.329293809324397e-25
-0.48292493771876366	5.85338994222827e-25
-0.48286390256251366	6.344982968809905e-25
-0.48280286740626366	6.801313693484527e-25
-0.48274183225001366	7.219820531764779e-25
-0.48268079709376366	7.598151320368737e-25
-0.48261976193751366	7.934179660969636e-25
-0.48255872678126366	8.226015103986525e-25
-0.48249769162501366	8.472013695046366e-25
-0.48243665646876366	8.670788657966932e-25
-0.48237562131251366	8.821217392875463e-25
-0.48231458615626366	8.922447823288416e-25
-0.48225355100001366	8.973903581614385e-25
-0.48219251584376366	8.975287701333644e-25
-0.48213148068751366	8.926583498035842e-25
-0.48207044553126366	8.828055666573452e-25
-0.48200941037501366	8.68024860975078e-25
-0.48194837521876366	8.483983379236866e-25
-0.48188734006251366	8.240353162574526e-25
-0.48182630490626366	7.950717589872428e-25
-0.48176526975001366	7.616695277065018e-25
-0.48170423459376366	7.240153752878926e-25
-0.48164319943751366	6.823200464478894e-25
-0.48158216428126366	6.36817082179059e-25
-0.48152112912501366	5.877614021320193e-25
-0.48146009396876366	5.354279870410479e-25
-0.48139905881251366	4.801103378061166e-25
-0.48133802365626366	4.221188219002903e-25
-0.48127698850001366	3.6177881568995153e-25
-0.48121595334376366	2.994291354403621e-25
-0.48115491818751366	2.3541988473167666e-25
-0.48109388303126366	1.7011055468268805e-25
-0.48103284787501366	1.0386829451029473e-25
-0.48097181271876366	3.706517346418043e-26
-0.48091077756251366	-2.9923121700341183e-26
-0.48084974240626366	-9.671979775805753e-26
-0.48078870725001366	-1.6294943424000104e-25
-0.48072767209376366	-2.282391717964181e-25
-0.48066663693751366	-2.922215970688504e-25
-0.48060560178126366	-3.54536781194563e-25
-0.48054456662501366	-4.148336886905097e-25
-0.48048353146876366	-4.727727906704712e-25
-0.48042249631251366	-5.280278482259786e-25
-0.48036146115626366	-5.802874061402849e-25
-0.48030042600001366	-6.292570185929132e-25
-0.48023939084376366	-6.746606858463181e-25
-0.48017835568751366	-7.162423771376095e-25
-0.48011732053126366	-7.537675526566197e-25
-0.48005628537501366	-7.870245558478831e-25
-0.47999525021876366	-8.158257725188925e-25
-0.47993421506251366	-8.400085244372198e-25
-0.47987317990626366	-8.594362847503744e-25
-0.47981214475001366	-8.739993482102732e-25
-0.47975110959376366	-8.836153328536294e-25
-0.47969007443751366	-8.882298111552174e-25
-0.47962903928126366	-8.87816621903946e-25
-0.47956800412501366	-8.823779301900287e-25
-0.47950696896876366	-8.7194429700007e-25
-0.47944593381251366	-8.56574529162709e-25
-0.47938489865626366	-8.363553247438932e-25
-0.47932386350001366	-8.114007929786552e-25
-0.47926282834376366	-7.818518614993445e-25
-0.47920179318751366	-7.478754300025923e-25
-0.47914075803126366	-7.096635294150213e-25
-0.47907972287501366	-6.674321492356927e-25
-0.47901868771876366	-6.214200244813007e-25
-0.47895765256251366	-5.718874982691999e-25
-0.47889661740626366	-5.191147250863738e-25
-0.47883558225001366	-4.634003843852373e-25
-0.47877454709376366	-4.0505984246911637e-25
-0.47871351193751366	-3.4442342606263757e-25
-0.47865247678126366	-2.8183463574246625e-25
-0.47859144162501366	-2.1764794964310856e-25
-0.47853040646876366	-1.522272505315063e-25
-0.47846937131251366	-8.594329533859035e-26
-0.47840833615626366	-1.9171990357096336e-26
-0.47834730100001366	4.7707854760250635e-26
-0.47828626584376366	1.1431688947756543e-25
-0.47822523068751366	1.8027683356209121e-25
-0.47816419553126366	2.4521329634653797e-25
-0.47810316037501366	3.087573618890066e-25
-0.47804212521876366	3.7054778331685358e-25
-0.47798109006251366	4.302334400177571e-25
-0.47792005490626366	4.874746911956016e-25
-0.47785901975001366	5.419457749613146e-25
-0.47779798459376366	5.933365379817885e-25
-0.47773694943751366	6.413540414078477e-25
-0.47767591428126366	6.857245188516516e-25
-0.47761487912501366	7.261946775988583e-25
-0.47755384396876366	7.625332620036297e-25
-0.47749280881251366	7.945323593866937e-25
-0.47743177365626366	8.220086076157143e-25
-0.47737073850001366	8.448042501255879e-25
-0.47730970334376366	8.627879074746581e-25
-0.47724866818751366	8.758555845035448e-25
-0.47718763303126366	8.839310955211278e-25
-0.47712659787501366	8.869664773976356e-25
-0.47706556271876366	8.849424569346473e-25
-0.47700452756251366	8.778684225587705e-25
-0.47694349240626366	8.657824164186477e-25
-0.47688245725001366	8.487509959004544e-25
-0.47682142209376366	8.2686878962419e-25
-0.47676038693751366	8.0025800695495945e-25
-0.47669935178126366	7.690678181731824e-25
-0.47663831662501366	7.334734003852552e-25
-0.47657728146876366	6.936750471007777e-25
-0.47651624631251366	6.49897086832566e-25
-0.47645521115626366	6.023864181710251e-25
-0.47639417600001366	5.514114440345574e-25
-0.47633314084376366	4.972602711589943e-25
-0.47627210568751366	4.402390619069775e-25
-0.47621107053126366	3.8067082778196765e-25
-0.47615003537501366	3.188927870546833e-25
-0.47608900021876366	2.552550815815051e-25
-0.47602796506251366	1.9011872788023105e-25
-0.47596692990626366	1.2385309944597593e-25
-0.47590589475001366	5.683458520679283e-26
-0.47584485959376366	-1.0556300876080047e-26
-0.47578382443751366	-7.793651814743273e-26
-0.47572278928126366	-1.4492283707530746e-25
-0.47566175412501366	-2.1113437402605885e-25
-0.47560071896876366	-2.761940553443621e-25
-0.47553968381251366	-3.3973132373799624e-25
-0.47547864865626366	-4.0138416143603097e-25
-0.47541761350001366	-4.608009268163594e-25
-0.47535657834376366	-5.176424924824318e-25
-0.47529554318751366	-5.715842580247381e-25
-0.47523450803126366	-6.223179191930924e-25
-0.47517347287501366	-6.695531252856982e-25
-0.47511243771876366	-7.130193479913876e-25
-0.47505140256251366	-7.524673635490141e-25
-0.47499036740626366	-7.876705161538829e-25
-0.47492933225001366	-8.184262484900364e-25
-0.47486829709376366	-8.445571642373655e-25
-0.47480726193751366	-8.659120092757529e-25
-0.47474622678126366	-8.823666285294323e-25
-0.47468519162501366	-8.938246448440036e-25
-0.47462415646876366	-9.00218019900901e-25
-0.47456312131251366	-9.015074613256496e-25
-0.47450208615626366	-8.976827084191931e-25
-0.47444105100001366	-8.887624962055617e-25
-0.47438001584376366	-8.747945904940249e-25
-0.47431898068751366	-8.558554607328237e-25
-0.47425794553126366	-8.320498688362864e-25
-0.47419691037501366	-8.035103172264658e-25
-0.47413587521876366	-7.703962408936656e-25
-0.47407484006251366	-7.328932480808432e-25
-0.47401380490626366	-6.912119547020607e-25
-0.47395276975001366	-6.455867601294457e-25
-0.47389173459376366	-5.96274774275498e-25
-0.47383069943751366	-5.435541147272588e-25
-0.47376966428126366	-4.877223613807119e-25
-0.47370862912501366	-4.290950430332901e-25
-0.47364759396876366	-3.680036948293997e-25
-0.47358655881251366	-3.0479404266070885e-25
-0.47352552365626366	-2.398239809799067e-25
-0.47346448850001366	-1.7346172061721538e-25
-0.47340345334376366	-1.060833989812148e-25
-0.47334241818751366	-3.8071206798353877e-26
-0.47328138303126366	3.018877481318637e-26
-0.47322034787501366	9.83091420987165e-26
-0.47315931271876366	1.6590284318274197e-25
-0.47309827756251366	2.325857327026458e-25
-0.47303724240626366	2.9797876057581643e-25
-0.47297620725001366	3.617098558769363e-25
-0.47291517209376366	4.234164355569412e-25
-0.47285413693751366	4.827471546464916e-25
-0.47279310178126366	5.393640005867393e-25
-0.47273206662501366	5.929444157346019e-25
-0.47267103146876366	6.4318282582487055e-25
-0.47260999631251366	6.897926742639401e-25
-0.47254896115626366	7.325077973692122e-25
-0.47248792600001366	7.710841923991973e-25
-0.47242689084376366	8.053014111004048e-25
-0.47236585568751366	8.34963474997802e-25
-0.47230482053126366	8.599005029867882e-25
-0.47224378537501366	8.799693811623717e-25
-0.47218275021876366	8.950545879453427e-25
-0.47212171506251366	9.050690788037563e-25
