Time	Frequency
-0.5000126363437545	0.22457458222218804
-0.4999516011875045	0.2055603669389715
-0.4998905660312545	0.18582080956622177
-0.4998295308750045	0.16542219354573337
-0.4997684957187545	0.14443303486697506
-0.4997074605625045	0.1229238840716379
-0.4996464254062545	0.10096721707452913
-0.4995853902500045	0.07863690665964547
-0.4995243550937545	0.05600830067231635
-0.4994633199375045	0.033157745026597005
-0.4994022847812545	0.010162328776369273
-0.4993412496250045	-0.01290016187346934
-0.4992802144687545	-0.035951832274205245
-0.4992191793125045	-0.058914687341060236
-0.4991581441562545	-0.08171095910464544
-0.4990971090000045	-0.10426349669218615
-0.4990360738437545	-0.12649584832677313
-0.4989750386875045	-0.1483326171191879
-0.4989140035312545	-0.16969974296823176
-0.4988529683750045	-0.1905246958781855
-0.4987919332187545	-0.2107367273968392
-0.4987308980625045	-0.2302671576497645
-0.4986698629062545	-0.24904960592561268
-0.4986088277500045	-0.26702012549058707
-0.4985477925937545	-0.284117561743263
-0.4984867574375045	-0.30028369134745414
-0.4984257222812545	-0.3154633452980673
-0.4983646871250045	-0.3296047914491274
-0.4983036519687545	-0.34265973250018916
-0.4982426168125045	-0.3545835261871389
-0.4981815816562545	-0.365335413917522
-0.4981205465000045	-0.37487854465435605
-0.4980595113437545	-0.3831801773630857
-0.4979984761875045	-0.39021178318289124
-0.4979374410312545	-0.39594912920848774
-0.4978764058750045	-0.40037236291152506
-0.4978153707187545	-0.4034661015788591
-0.4977543355625045	-0.4052194795897022
-0.4976933004062545	-0.40562616584931155
-0.4976322652500045	-0.4046844141037537
-0.4975712300937545	-0.40239706947249876
-0.4975101949375045	-0.3987715416544305
-0.4974491597812545	-0.39381979451125754
-0.4973881246250045	-0.3875583163821241
-0.4973270894687545	-0.3800080433107039
-0.4972660543125045	-0.37119431024086164
-0.4972050191562545	-0.36114675282682657
-0.4971439840000045	-0.3498992181941313
-0.4970829488437545	-0.33748964381603136
-0.4970219136875045	-0.3239599288390546
-0.4969608785312545	-0.30935581160789327
-0.4968998433750045	-0.29372668233382204
-0.4968388082187545	-0.27712543438563386
-0.4967777730625045	-0.25960830132408425
-0.4967167379062545	-0.24123463673005832
-0.4966557027500045	-0.2220667165001973
-0.4965946675937545	-0.20216956232294686
-0.4965336324375045	-0.18161066201613235
-0.4964725972812545	-0.160459799763476
-0.4964115621250045	-0.13878877272988485
-0.4963505269687545	-0.11667117127577625
-0.4962894918125045	-0.0941821369511445
-0.4962284566562545	-0.07139803594987025
-0.4961674215000045	-0.048396339285047246
-0.4961063863437545	-0.025255197436891332
-0.4960453511875045	-0.0020532629743813743
-0.4959843160312545	0.02113053960486597
-0.4959232808750045	0.04421742718502297
-0.4958622457187545	0.06712885892065037
-0.4958012105625045	0.08978692897289922
-0.4957401754062545	0.11211458450314067
-0.4956791402500045	0.13403584520953793
-0.4956181050937545	0.15547621495085465
-0.4955570699375045	0.1763627348281528
-0.4954960347812545	0.19662436074314027
-0.4954349996250045	0.2161922357792429
-0.4953739644687545	0.23499979272409185
-0.4953129293125045	0.2529831160801215
-0.4952518941562545	0.27008107411761945
-0.4951908590000045	0.2862356003666412
-0.4951298238437545	0.30139183054919616
-0.4950687886875045	0.31549828912867767
-0.4950077535312545	0.32850718975794074
-0.4949467183750045	0.3403744037948908
-0.4948856832187545	0.35105975075020884
-0.4948246480625045	0.36052715316130074
-0.4947636129062545	0.3687446264352021
-0.4947025777500045	0.375684522177677
-0.4946415425937545	0.3813235966085288
-0.4945805074375045	0.3856430147445275
-0.4945194722812545	0.38862851018798883
-0.4944584371250045	0.39027041299883375
-0.4943974019687545	0.39056362869965133
-0.4943363668125045	0.3895077297371606
-0.4942753316562545	0.387106927728822
-0.4942142965000045	0.3833700443155313
-0.4941532613437545	0.37831051173417357
-0.4940922261875045	0.3719463158112604
-0.4940311910312545	0.3642999257979912
-0.4939701558750045	0.3553982415547827
-0.4939091207187545	0.34527247568722513
-0.4938480855625045	0.33395806838543085
-0.4937870504062545	0.32149456927724496
-0.4937260152500045	0.3079254636730157
-0.4936649800937545	0.29329808270774843
-0.4936039449375045	0.27766341384854487
-0.4935429097812545	0.26107589577201484
-0.4934818746250045	0.24359329225164678
-0.4934208394687545	0.22527644529715093
-0.4933598043125045	0.2061891007619051
-0.4932987691562545	0.1863976669292329
-0.4932377340000045	0.16597096818280582
-0.4931766988437545	0.14498010488417595
-0.4931156636875045	0.12349805634951568
-0.4930546285312545	0.10159956221640339
-0.4929935933750045	0.07936081571827594
-0.4929325582187545	0.05685916123373202
-0.4928715230625045	0.03417293145517091
-0.4928104879062545	0.01138104332107201
-0.4927494527500045	-0.011437137320897807
-0.4926884175937545	-0.03420217192746147
-0.4926273824375045	-0.05683480917100908
-0.4925663472812545	-0.07925615797801902
-0.4925053121250045	-0.10138811441206025
-0.4924442769687545	-0.12315354769623484
-0.4923832418125045	-0.14447650402593845
-0.4923222066562545	-0.1652826162650309
-0.4922611715000045	-0.18549928778128166
-0.4922001363437545	-0.20505585504521248
-0.4921391011875045	-0.22388401427359422
-0.4920780660312545	-0.24191793432509096
-0.4920170308750045	-0.25909445485278654
-0.4919559957187545	-0.27535347663316223
-0.4918949605625045	-0.29063795807802223
-0.4918339254062545	-0.30489424848402846
-0.4917728902500045	-0.31807229487096905
-0.4917118550937545	-0.3301256536137425
-0.4916508199375045	-0.3410118679412443
-0.4915897847812545	-0.3506924631017746
-0.4915287496250045	-0.35913310863962183
-0.4914677144687545	-0.3663038102121823
-0.4914066793125045	-0.3721789347347445
-0.4913456441562545	-0.3767373401267506
-0.4912846090000045	-0.37996242420651116
-0.4912235738437545	-0.3818422457786699
-0.4911625386875045	-0.3823694838055518
-0.4911015035312545	-0.3815415119570858
-0.4910404683750045	-0.37936043979876294
-0.4909794332187545	-0.3758330312438014
-0.4909183980625045	-0.3709707465450719
-0.4908573629062545	-0.36478968256098887
-0.4907963277500045	-0.3573105263559098
-0.4907352925937545	-0.3485584627244331
-0.4906742574375045	-0.33856312927505633
-0.4906132222812545	-0.3273584918477408
-0.4905521871250045	-0.3149827085985467
-0.4904911519687545	-0.3014780741731452
-0.4904301168125045	-0.28689076035079486
-0.4903690816562545	-0.271270786776113
-0.4903080465000045	-0.2546717623321334
-0.4902470113437545	-0.23715068483129265
-0.4901859761875045	-0.21876788555525598
-0.4901249410312545	-0.1995866270469612
-0.4900639058750045	-0.1796730231553505
-0.4900028707187545	-0.15909579671659274
-0.4899418355625045	-0.1379259698220156
-0.4898808004062545	-0.11623670062755435
-0.4898197652500045	-0.09410298197284303
-0.4897587300937545	-0.07160141908389775
-0.4896976949375045	-0.048809921975406186
-0.4896366597812545	-0.02580746871834816
-0.4895756246250045	-0.0026738294667325154
-0.4895145894687545	0.020510712685904594
-0.4894535543125045	0.04366565864894808
-0.4893925191562545	0.0667105450932496
-0.4893314840000045	0.0895652013739371
-0.4892704488437545	0.11215015248188732
-0.4892094136875045	0.13438667699609674
-0.4891483785312545	0.15619728328318816
-0.4890873433750045	0.17750593457307656
-0.4890263082187545	0.19823813320264033
-0.4889652730625045	0.2183214938301007
-0.4889042379062545	0.23768574367440037
-0.4888432027500045	0.2562630097135634
-0.4887821675937545	0.2739882124238332
-0.4887211324375045	0.29079906758155616
-0.4886600972812545	0.3066364472164789
-0.4885990621250045	0.3214446064307061
-0.4885380269687545	0.3351712302213174
-0.4884769918125045	0.3477677732478845
-0.4884159566562545	0.35918957071321717
-0.4883549215000045	0.36939594247279073
-0.4882938863437545	0.37835044745532237
-0.4882328511875045	0.38602091083088313
-0.4881718160312545	0.3923795887622665
-0.4881107808750045	0.3974032797854626
-0.4880497457187545	0.4010733426356196
-0.4879887105625045	0.403375850215855
-0.4879276754062545	0.40430157844038095
-0.4878666402500045	0.40384605095853265
-0.4878056050937545	0.4020095925617029
-0.4877445699375045	0.39879728218911664
-0.4876835347812545	0.3942189700938461
-0.4876224996250045	0.3882892459497043
-0.4875614644687545	0.38102736827568745
-0.4875004293125045	0.37245722624687005
-0.4874393941562545	0.3626072521291889
-0.4873783590000045	0.3515103043958999
-0.4873173238437545	0.3392036006977219
-0.4872562886875045	0.32572854431199866
-0.4871952535312545	0.31113060727205416
-0.4871342183750045	0.29545919670489873
-0.4870731832187545	0.27876741419424317
-0.4870121480625045	0.2611119638908865
-0.4869511129062545	0.24255291213942334
-0.4868900777500045	0.2231534338522688
-0.4868290425937545	0.20297972150044571
-0.4867680074375045	0.18210063104254798
-0.4867069722812545	0.16058749550522053
-0.4866459371250045	0.13851390956803974
-0.4865849019687545	0.11595542316144648
-0.4865238668125045	0.09298929955657995
-0.4864628316562545	0.06969424182799434
-0.4864017965000045	0.04615020502514966
-0.4863407613437545	0.022437901190978743
-0.4862797261875045	-0.0013611978170454551
-0.4862186910312545	-0.025165307431060994
-0.4861576558750045	-0.048892722568179836
-0.4860966207187545	-0.07246174801624745
-0.4860355855625045	-0.09579137254029706
-0.4859745504062545	-0.11880131147723096
-0.4859135152500045	-0.1414123466931253
-0.4858524800937545	-0.1635466328505004
-0.4857914449375045	-0.18512790193957593
-0.4857304097812545	-0.20608185897524808
-0.4856693746250045	-0.22633621770160336
-0.4856083394687545	-0.24582120415113473
-0.4855473043125045	-0.264469634993352
-0.4854862691562545	-0.28221717523548523
-0.4854252340000045	-0.2990026540011125
-0.4853641988437545	-0.3147681347538177
-0.4853031636875045	-0.3294592560167146
-0.4852421285312545	-0.34302532852388856
-0.4851810933750045	-0.35541954643551626
-0.4851200582187545	-0.36659917091107497
-0.4850590230625045	-0.37652563770873704
-0.4849979879062545	-0.38516472483397024
-0.4849369527500045	-0.3924866646295161
-0.4848759175937545	-0.3984662484135411
-0.4848148824375045	-0.4030829101559115
-0.4847538472812545	-0.4063208144348735
-0.4846928121250045	-0.40816889938727274
-0.4846317769687545	-0.40862092260128785
-0.4845707418125045	-0.40767549290502525
-0.4845097066562545	-0.4053360553095147
-0.4844486715000045	-0.40161090831440377
-0.4843876363437545	-0.39651315974893064
-0.4843266011875045	-0.3900606785962054
-0.4842655660312545	-0.3822760612835902
-0.4842045308750045	-0.37318651469931874
-0.4841434957187545	-0.3628238038030524
-0.4840824605625045	-0.3512241209838028
-0.4840214254062545	-0.3384279493866607
-0.4839603902500045	-0.32447996623098924
-0.4838993550937545	-0.309428837511326
-0.4838383199375045	-0.2933270814248077
-0.4837772847812545	-0.27623090252202404
-0.4837162496250045	-0.25819993190479373
-0.4836552144687545	-0.2392970850209276
-0.4835941793125045	-0.21958836215722904
-0.4835331441562545	-0.19914248695209266
-0.4834721090000045	-0.17803083281186538
-0.4834110738437545	-0.15632711612085234
-0.4833500386875045	-0.13410702145417255
-0.4832890035312545	-0.11144817724352489
-0.4832279683750045	-0.08842967213334507
-0.4831669332187545	-0.06513182268671307
-0.4831058980625045	-0.04163606505582253
-0.4830448629062545	-0.018024382289542146
-0.4829838277500045	0.005620754462916068
-0.4829227925937545	0.02921671357740552
-0.4828617574375045	0.05268111680945037
-0.4828007222812545	0.07593195380769588
-0.4827396871250045	0.09888802314520881
-0.4826786519687545	0.12146905422319508
-0.4826176168125045	0.1435961754860422
-0.4825565816562545	0.16519205784000585
-0.4824955465000045	0.18618114604833919
-0.4824345113437545	0.20649016315347088
-0.4823734761875045	0.2260480355338468
-0.4823124410312545	0.24478640216196143
-0.4822514058750045	0.26263977129782895
-0.4821903707187545	0.2795456715420804
-0.4821293355625045	0.29544502089460845
-0.4820683004062545	0.31028220135229484
-0.4820072652500045	0.32400533916877916
-0.4819462300937545	0.3365664519587622
-0.4818851949375045	0.3479216134842373
-0.4818241597812545	0.35803113828219524
-0.4817631246250045	0.36685969388999357
-0.4817020894687545	0.3743764425433003
-0.4816410543125045	0.380555137220287
-0.4815800191562545	0.3853742283960328
-0.4815189840000045	0.3888169482301794
-0.4814579488437545	0.39087133323776757
-0.4813969136875045	0.3915303176873354
-0.4813358785312545	0.3907917336119652
-0.4812748433750045	0.3886583086797041
-0.4812138082187545	0.3851376911360035
-0.4811527730625045	0.38024240351847055
-0.4810917379062545	0.3739897985893819
-0.4810307027500045	0.36640200804403994
-0.4809696675937545	0.35750588055460164
-0.4809086324375045	0.3473328456202099
-0.4808475972812545	0.3359188616487768
-0.4807865621250045	0.3233042537733218
-0.4807255269687545	0.3095335745643613
-0.4806644918125045	0.2946554774437884
-0.4806034566562545	0.27872251475677445
-0.4805424215000045	0.26179097865924145
-0.4804813863437545	0.24392068754617818
-0.4804203511875045	0.22517480076072274
-0.4803593160312545	0.20561955277566682
-0.4802982808750045	0.18532409716243053
-0.4802372457187545	0.16436017238807124
-0.4801762105625045	0.14280193690739376
-0.4801151754062545	0.12072565960060493
-0.4800541402500045	0.09820940914173062
-0.4799931050937545	0.0753329804922828
-0.4799320699375045	0.052177293382209465
-0.4798710347812545	0.028824371835691913
-0.4798099996250045	0.005357035986295936
-0.4797489644687545	-0.018141610850928993
-0.4796879293125045	-0.041588202625891385
-0.4796268941562545	-0.06489954056278584
-0.4795658590000045	-0.08799290264174328
-0.4795048238437545	-0.11078626151704044
-0.4794437886875045	-0.13319862322946477
-0.4793827535312545	-0.15515030493458143
-0.4793217183750045	-0.17656319863351352
-0.4792606832187545	-0.1973610806388126
-0.4791996480625045	-0.2174698206173092
-0.4791386129062545	-0.2368177156168162
-0.4790775777500045	-0.2553357252514815
-0.4790165425937545	-0.2729576351192405
-0.4789555074375045	-0.28962042864389775
-0.4788944722812545	-0.30526441030315365
-0.4788334371250045	-0.31983344215284054
-0.4787724019687545	-0.33327515131604996
-0.4787113668125045	-0.3455411264886266
-0.4786503316562545	-0.3565870823322312
-0.4785892965000045	-0.36637296035159844
-0.4785282613437545	-0.37486321500891673
-0.4784672261875045	-0.38202678478875385
-0.4784061910312545	-0.38783727033843596
-0.4783451558750045	-0.39227309206319505
-0.4782841207187545	-0.3953174407815035
-0.4782230855625045	-0.3969584401227311
-0.4781620504062545	-0.39718916296950857
-0.4781010152500045	-0.39600763673604245
-0.4780399800937545	-0.3934168839060185
-0.4779789449375045	-0.3894248929535359
-0.4779179097812545	-0.38404460734587054
-0.4778568746250045	-0.37729388023268073
-0.4777958394687545	-0.3691953926545488
-0.4777348043125045	-0.3597766220452147
-0.4776737691562545	-0.3490697065527312
-0.4776127340000045	-0.3371113332135654
-0.4775516988437545	-0.3239426716526101
-0.4774906636875045	-0.30960914482096324
-0.4774296285312545	-0.29416032496370975
-0.4773685933750045	-0.2776497766143601
-0.4773075582187545	-0.26013479600818973
-0.4772465230625045	-0.24167631202267179
-0.4771854879062545	-0.22233859094335626
-0.4771244527500045	-0.20218902798175994
-0.4770634175937545	-0.18129796970732096
-0.4770023824375045	-0.1597383909911598
-0.4769413472812545	-0.1375856688007758
-0.4768803121250045	-0.11491734909452415
-0.4768192769687545	-0.09181283723653598
-0.4767582418125045	-0.06835308484920097
-0.4766972066562545	-0.04462042657289031
-0.4766361715000045	-0.020698168573297822
-0.4765751363437545	0.0033296934056696453
-0.4765141011875045	0.02737864867291332
-0.4764530660312545	0.05136412694455138
-0.4763920308750045	0.07520172237276049
-0.4763309957187545	0.0988074562156327
-0.4762699605625045	0.12209815230572833
-0.4762089254062545	0.14499164865905403
-0.4761478902500045	0.1674071983733559
-0.4760868550937545	0.18926563620837597
-0.4760258199375045	0.21048965975923725
-0.4759647847812545	0.2310043159628837
-0.4759037496250045	0.2507369504284867
-0.4758427144687545	0.26961763132058303
-0.4757816793125045	0.28757951075269417
-0.4757206441562545	0.30455880018815307
-0.4756596090000045	0.32049518581887987
-0.4755985738437545	0.335332030742106
-0.4755375386875045	0.3490164643717367
-0.4754765035312545	0.36149969783898417
-0.4754154683750045	0.3727371453685833
-0.4753544332187545	0.38268854100373534
-0.4752933980625045	0.39131817822833265
-0.4752323629062545	0.3985949660723731
-0.4751713277500045	0.40449254476221624
-0.4751102925937545	0.4089894360308104
-0.4750492574375045	0.41206905821133377
-0.4749882222812545	0.413719818185343
-0.4749271871250045	0.4139351673968129
-0.4748661519687545	0.4127135905965529
-0.4748051168125045	0.41005864638230016
-0.4747440816562545	0.4059789528075606
-0.4746830465000045	0.4004881327436982
-0.4746220113437545	0.39360481086752447
-0.4745609761875045	0.38535252317769525
-0.4744999410312545	0.37575961714131245
-0.4744389058750045	0.3648592309742254
-0.4743778707187545	0.3526890752229942
-0.4743168355625045	0.33929136925343933
-0.4742558004062545	0.32471272253874345
-0.4741947652500045	0.3090038412435902
-0.4741337300937545	0.29221952382431593
-0.4740726949375045	0.2744183469555673
-0.4740116597812545	0.25566248031817873
-0.4739506246250045	0.2360175373430858
-0.4738895894687545	0.2155522337180216
-0.4738285543125045	0.1943382584840509
-0.4737675191562545	0.1724499401234315
-0.4737064840000045	0.1499640165335323
-0.4736454488437545	0.12695937607273824
-0.4735844136875045	0.10351676365272228
-0.4735233785312545	0.07971848689729229
-0.4734623433750045	0.05564814894426305
-0.4734013082187545	0.03139035574941964
-0.4733402730625045	0.007030348509822384
-0.4732792379062545	-0.01734616663003325
-0.4732182027500045	-0.04165343686530229
-0.4731571675937545	-0.0658059456026895
-0.4730961324375045	-0.0897186492730828
-0.4730350972812545	-0.11330736501774798
-0.4729740621250045	-0.13648901975017458
-0.4729130269687545	-0.15918194045049291
-0.4728519918125045	-0.18130616499184546
-0.4727909566562545	-0.20278374080454625
-0.4727299215000045	-0.22353895075178026
-0.4726688863437545	-0.24349862432897548
-0.4726078511875045	-0.2625923876420858
-0.4725468160312545	-0.28075291900488364
-0.4724857808750045	-0.29791617514659985
-0.4724247457187545	-0.31402159947868846
-0.4723637105625045	-0.3290124279766665
-0.4723026754062545	-0.3428357875713351
-0.4722416402500045	-0.35544290150054053
-0.4721806050937545	-0.36678935757237596
-0.4721195699375045	-0.3768351629286855
-0.4720585347812545	-0.38554489341195636
-0.4719974996250045	-0.39288792253505134
-0.4719364644687545	-0.398838411003011
-0.4718754293125045	-0.4033754482168034
-0.4718143941562545	-0.40648318024531777
-0.4717533590000045	-0.40815076613969403
-0.4716923238437545	-0.4083724990831086
-0.4716312886875045	-0.4071478024114974
-0.4715702535312545	-0.4044812227632554
-0.4715092183750045	-0.40038243525269995
-0.4714481832187545	-0.39486619653020544
-0.4713871480625045	-0.3879523036805859
-0.4713261129062545	-0.37966552498425515
-0.4712650777500045	-0.3700355031630677
-0.4712040425937545	-0.35909666589819045
-0.4711430074375045	-0.3468881111103081
-0.4710819722812545	-0.3334534317300968
-0.4710209371250045	-0.31884061015879867
-0.4709599019687545	-0.30310183225754767
-0.4708988668125045	-0.28629328084779343
-0.4708378316562545	-0.2684749724334546
-0.4707767965000045	-0.2497105238891988
-0.4707157613437545	-0.23006693075774623
-0.4706547261875045	-0.2096143386052193
-0.4705936910312545	-0.1884257822709349
-0.4705326558750045	-0.1665769350672375
-0.4704716207187545	-0.1441458426274657
-0.4704105855625045	-0.1212126366896052
-0.4703495504062545	-0.09785925975680775
-0.4702885152500045	-0.07416916581431872
-0.4702274800937545	-0.050227027824775394
-0.4701664449375045	-0.0261184547505066
-0.4701054097812545	-0.0019296311765025279
-0.4700443746250045	0.022252921524387344
-0.4699833394687545	0.04634267323848683
-0.4699223043125045	0.07025346803508073
-0.4698612691562545	0.09389967714841176
-0.4698002340000045	0.11719664895763461
-0.4697391988437545	0.14006099849808273
