Time	Frequency
-0.5000175173437498	1.5893943135273467e-24
-0.4999564821874998	1.5766215279423204e-24
-0.4998954470312498	1.5592344937167806e-24
-0.4998344118749998	1.5372824866729878e-24
-0.4997733767187498	1.5108279218061746e-24
-0.4997123415624998	1.4799461542545321e-24
-0.4996513064062498	1.4447252523426473e-24
-0.4995902712499998	1.4052658749306687e-24
-0.4995292360937498	1.3616807131152169e-24
-0.4994682009374998	1.3140945694678677e-24
-0.4994071657812498	1.2626436413334194e-24
-0.4993461306249998	1.2074752639029702e-24
-0.4992850954687498	1.1487477001888898e-24
-0.4992240603124998	1.0866292828703772e-24
-0.4991630251562498	1.0212982889444901e-24
-0.4991019899999998	9.529422909625178e-25
-0.4990409548437498	8.817576191081541e-25
-0.4989799196874998	8.079488204274216e-25
-0.4989188845312498	7.317281045073598e-25
-0.4988578493749998	6.533146923121589e-25
-0.4987968142187498	5.729342205946886e-25
-0.4987357790624998	4.908181060134342e-25
-0.4986747439062498	4.072028230955016e-25
-0.4986137087499998	3.223293243644307e-25
-0.4985526735937498	2.364423410137343e-25
-0.4984916384374998	1.4978948458241922e-25
-0.4984306032812498	6.262088429149896e-26
-0.4983695681249998	-2.4811808214754187e-26
-0.4983085329687498	-1.1225606195603031e-25
-0.4982474978124998	-1.9945905667197133e-25
-0.4981864626562498	-2.861687571110325e-25
-0.4981254274999998	-3.721340760138226e-25
-0.4980643923437498	-4.571062599136075e-25
-0.4980033571874998	-5.408390280614161e-25
-0.4979423220312498	-6.230896370885903e-25
-0.4978812868749998	-7.036194479325426e-25
-0.4978202517187498	-7.821944790682837e-25
-0.4977592165624998	-8.585866031459652e-25
-0.4976981814062498	-9.325733403664821e-25
-0.4976371462499998	-1.00393940667375e-24
-0.4975761110937498	-1.0724766658695998e-24
-0.4975150759374998	-1.137985055967424e-24
-0.4974540407812498	-1.2002732425877255e-24
-0.4973930056249998	-1.2591586497988249e-24
-0.4973319704687498	-1.3144688743007748e-24
-0.4972709353124998	-1.3660412927073371e-24
-0.4972099001562498	-1.4137239517930799e-24
-0.4971488649999998	-1.4573763107462951e-24
-0.4970878298437498	-1.4968688485587651e-24
-0.4970267946874998	-1.532084234281452e-24
-0.4969657595312498	-1.5629173660769516e-24
-0.4969047243749998	-1.5892753489744557e-24
-0.4968436892187498	-1.6110784976798396e-24
-0.4967826540624998	-1.6282598865046278e-24
-0.4967216189062498	-1.640765836166936e-24
-0.4966605837499998	-1.6485562567505568e-24
-0.4965995485937498	-1.6516043362191638e-24
-0.4965385134374998	-1.649897041731715e-24
-0.4964774782812498	-1.6434349115335267e-24
-0.4964164431249998	-1.6322321378438773e-24
-0.4963554079687498	-1.616316593439695e-24
-0.4962943728124998	-1.5957296368018583e-24
-0.4962333376562498	-1.5705261108564065e-24
-0.4961723024999998	-1.5407741407576148e-24
-0.4961112673437498	-1.5065549612810915e-24
-0.4960502321874998	-1.4679626676232828e-24
-0.4959891970312498	-1.425104017514154e-24
-0.4959281618749998	-1.378098021688486e-24
-0.4958671267187498	-1.32707573392198e-24
-0.4958060915624998	-1.2721798138758397e-24
-0.4957450564062498	-1.2135640828105477e-24
-0.4956840212499998	-1.1513932701600893e-24
-0.4956229860937498	-1.0858422028301873e-24
-0.4955619509374998	-1.0170957311820003e-24
-0.4955009157812498	-9.453479526304919e-25
-0.4954398806249998	-8.708015360522924e-25
-0.4953788454687498	-7.936675537399989e-25
-0.4953178103124998	-7.14164519790002e-25
-0.4952567751562498	-6.325178466069082e-25
-0.4951957399999998	-5.48959278890013e-25
-0.4951347048437498	-4.637262976870722e-25
-0.4950736696874998	-3.770611343110439e-25
-0.4950126345312498	-2.892104526262836e-25
-0.4949515993749998	-2.0042445092568962e-25
-0.4948905642187498	-1.1095599752841318e-25
-0.4948295290624998	-2.1060312144404935e-26
-0.4947684939062498	6.900616572194546e-26
-0.4947074587499998	1.5898621741821105e-25
-0.4946464235937498	2.486229586266993e-25
-0.4945853884374998	3.376600583686176e-25
-0.4945243532812498	4.2584282683554475e-25
-0.4944633181249998	5.129191291891225e-25
-0.4944022829687498	5.98639377957752e-25
-0.4943412478124998	6.827582153223032e-25
-0.4942802126562498	7.6503446772054e-25
-0.4942191774999998	8.452320815010827e-25
-0.4941581423437498	9.231210639155905e-25
-0.4940971071874998	9.9847764185225e-25
-0.4940360720312498	1.0710853834368906e-24
-0.4939750368749998	1.140735564404249e-24
-0.4939140017187498	1.2072277723560417e-24
-0.4938529665624998	1.2703706026204671e-24
-0.4937919314062498	1.329982221499946e-24
-0.4937308962499998	1.3858906888170192e-24
-0.4936698610937498	1.437934661629115e-24
-0.4936088259374998	1.4859639089689676e-24
-0.4935477907812498	1.5298394280691187e-24
-0.4934867556249998	1.5694342486887491e-24
-0.4934257204687498	1.6046335822727447e-24
-0.4933646853124998	1.6353350465742829e-24
-0.4933036501562498	1.6614493747421167e-24
-0.4932426149999998	1.6829002283511125e-24
-0.4931815798437498	1.6996246113619312e-24
-0.4931205446874998	1.7115732283279315e-24
-0.4930595095312498	1.718710285440628e-24
-0.4929984743749998	1.7210138636603094e-24
-0.4929374392187498	1.7184759269445905e-24
-0.4928764040624998	1.711102287665895e-24
-0.4928153689062498	1.6989126499021944e-24
-0.4927543337499998	1.68194056610676e-24
-0.4926932985937498	1.660233333905968e-24
-0.4926322634374998	1.6338518207869697e-24
-0.4925712282812498	1.6028704105499513e-24
-0.4925101931249998	1.5673766406846948e-24
-0.4924491579687498	1.5274711193818828e-24
-0.4923881228124998	1.4832671041314424e-24
-0.4923270876562498	1.4348902396331994e-24
-0.4922660524999998	1.3824782744552899e-24
-0.4922050173437498	1.3261804369691337e-24
-0.4921439821874998	1.2661574162182676e-24
-0.4920829470312498	1.2025803484002384e-24
-0.4920219118749998	1.1356308892595408e-24
-0.4919608767187498	1.0655004271823418e-24
-0.4918998415624998	9.923892118681797e-25
-0.4918388064062498	9.165066857973851e-25
-0.4917777712499998	8.38069844052038e-25
-0.4917167360937498	7.57303217518121e-25
-0.4916557009374998	6.744383090173295e-25
-0.4915946657812498	5.89712364840221e-25
-0.4915336306249998	5.033682667718904e-25
-0.4914725954687498	4.1565361206454295e-25
-0.4914115603124998	3.2681991064827873e-25
-0.4913505251562498	2.371219379583008e-25
-0.4912894899999998	1.4681717355458958e-25
-0.4912284548437498	5.616468013229991e-26
-0.4911674196874998	-3.45752984117035e-26
-0.4911063845312498	-1.251421598973475e-25
-0.4910453493749998	-2.152760416426784e-25
-0.4909843142187498	-3.047177690237997e-25
-0.4909232790624998	-3.9321067043790933e-25
-0.4908622439062498	-4.805005321006269e-25
-0.4908012087499998	-5.663362229207291e-25
-0.4907401735937498	-6.5047163730274125e-25
-0.4906791384374998	-7.326645247234494e-25
-0.4906181032812498	-8.126788216561967e-25
-0.4905570681249998	-8.902849135503996e-25
-0.4904960329687498	-9.652591607348708e-25
-0.4904349978124998	-1.0373866611599408e-24
-0.4903739626562498	-1.106459944217199e-24
-0.4903129274999998	-1.17228040108161e-24
-0.4902518923437498	-1.2346593163979659e-24
-0.4901908571874998	-1.2934171953841153e-24
-0.4901298220312498	-1.3483855090916544e-24
-0.4900687868749998	-1.3994065098942702e-24
-0.4900077517187498	-1.4463337695297676e-24
-0.4899467165624998	-1.489032755742255e-24
-0.4898856814062498	-1.5273812635014066e-24
-0.4898246462499998	-1.5612695124642557e-24
-0.4897636110937498	-1.5906006402176825e-24
-0.4897025759374998	-1.6152911896396667e-24
-0.4896415407812498	-1.6352707880581828e-24
-0.4895805056249998	-1.6504830350804575e-24
-0.4895194704687498	-1.6608851918721787e-24
-0.4894584353124998	-1.66644840723425e-24
-0.4893974001562498	-1.6671580608877963e-24
-0.4893363649999998	-1.6630134039944877e-24
-0.4892753298437498	-1.6540279039925914e-24
-0.4892142946874998	-1.6402290508536557e-24
-0.4891532595312498	-1.621658280212176e-24
-0.4890922243749998	-1.5983709658284491e-24
-0.4890311892187498	-1.5704360854478757e-24
-0.4889701540624998	-1.5379362579840454e-24
-0.4889091189062498	-1.5009672781215316e-24
-0.4888480837499998	-1.459637963875085e-24
-0.4887870485937498	-1.4140699117982097e-24
-0.4887260134374998	-1.3643969153983813e-24
-0.4886649782812498	-1.3107649017425867e-24
-0.4886039431249998	-1.2533311805759547e-24
-0.4885429079687498	-1.1922642751184967e-24
-0.4884818728124998	-1.12774322449295e-24
-0.4884208376562498	-1.0599572063319094e-24
-0.4883598024999998	-9.891049986952293e-25
-0.4882987673437498	-9.153940906611281e-25
-0.4882377321874998	-8.39040758176977e-25
-0.4881766970312498	-7.602685963189788e-25
-0.4881156618749998	-6.7930852864015905e-25
-0.4880546267187498	-5.9639798080825535e-25
-0.4879935915624998	-5.117797242792343e-25
-0.4879325564062498	-4.257021435023969e-25
-0.4878715212499998	-3.384174198705767e-25
-0.4878104860937498	-2.5018145253606813e-25
-0.4877494509374998	-1.612533265985395e-25
-0.4876884157812498	-7.189359938226167e-26
-0.4876273806249998	1.7635424691192173e-26
-0.4875663454687498	1.070707918590101e-25
-0.4875053103124998	1.961503079353733e-25
-0.4874442751562498	2.8461215058989823e-25
-0.4873832399999998	3.7219636745517137e-25
-0.4873222048437498	4.586459902556859e-25
-0.4872611696874998	5.43706501282027e-25
-0.4872001345312498	6.271279190836609e-25
-0.4871390993749998	7.086649863053228e-25
-0.4870780642187498	7.88077408063564e-25
-0.4870170290624998	8.651315996673055e-25
-0.4869559939062498	9.3960042022444e-25
-0.4868949587499998	1.0112643143390735e-24
-0.4868339235937498	1.0799119583074558e-24
-0.4867728884374998	1.1453405992346446e-24
-0.4867118532812498	1.207356972135303e-24
-0.4866508181249998	1.2657776666748988e-24
-0.4865897829687498	1.320429737738466e-24
-0.4865287478124998	1.3711512134154534e-24
-0.4864677126562498	1.4177915376378025e-24
-0.4864066774999998	1.4602120747610393e-24
-0.4863456423437498	1.4982864511986852e-24
-0.4862846071874998	1.5319009956203391e-24
-0.4862235720312498	1.5609550845496984e-24
-0.4861625368749998	1.5853612684884285e-24
-0.4861015017187498	1.6050458433687572e-24
-0.4860404665624998	1.619948796914686e-24
-0.4859794314062498	1.6300240853488403e-24
-0.4859183962499998	1.6352398828468645e-24
-0.4858573610937498	1.6355784705574016e-24
-0.4857963259374998	1.6310364839149675e-24
-0.4857352907812498	1.6216248208542902e-24
-0.4856742556249998	1.6073686700875419e-24
-0.4856132204687498	1.5883074158447184e-24
-0.4855521853124998	1.5644945398872195e-24
-0.4854911501562498	1.5359974935947405e-24
-0.4854301149999998	1.5028974594779338e-24
-0.4853690798437498	1.4652891791589135e-24
-0.4853080446874998	1.4232806345727292e-24
-0.4852470095312498	1.376992782766557e-24
-0.4851859743749998	1.326559174311204e-24
-0.4851249392187498	1.2721255543997261e-24
-0.4850639040624998	1.2138495589963438e-24
-0.4850028689062498	1.1519000463959641e-24
-0.4849418337499998	1.0864568582268733e-24
-0.4848807985937498	1.017710140288175e-24
-0.4848197634374998	9.458597216300849e-25
-0.4847587282812498	8.71114917741165e-25
-0.4846976931249998	7.936932780409634e-25
-0.4846366579687498	7.138206320072892e-25
-0.4845756228124998	6.317300729926863e-25
-0.4845145876562498	5.476610476837695e-25
-0.4844535524999998	4.618595218654382e-25
-0.4843925173437498	3.745760683310206e-25
-0.4843314821874998	2.860661550299031e-25
-0.4842704470312498	1.965889682586154e-25
-0.4842094118749998	1.0640633096818387e-25
-0.4841483767187498	1.578297935882834e-26
-0.4840873415624998	-7.501562398848048e-26
-0.4840263064062498	-1.6572286897308405e-25
-0.4839652712499998	-2.560722815114808e-25
-0.4839042360937498	-3.4579859027240826e-25
-0.4838432009374998	-4.3463764571916955e-25
-0.4837821657812498	-5.2232829021112895e-25
-0.4837211306249998	-6.086120939588727e-25
-0.4836600954687498	-6.9323485766298765e-25
-0.4835990603124998	-7.759470914823624e-25
-0.4835380251562498	-8.565043258051704e-25
-0.4834769899999998	-9.346689877270894e-25
-0.4834159548437498	-1.0102096266171466e-24
-0.4833549196874998	-1.0829026022318834e-24
-0.4832938845312498	-1.1525327848100735e-24
-0.4832328493749998	-1.2188931783701248e-24
-0.4831718142187498	-1.281786878707639e-24
-0.4831107790624998	-1.34102673967635e-24
-0.4830497439062498	-1.396435966390936e-24
-0.4829887087499998	-1.4478493294872806e-24
-0.4829276735937498	-1.495112821685004e-24
-0.4828666384374998	-1.538084580883132e-24
-0.4828056032812498	-1.5766353596788819e-24
-0.4827445681249998	-1.6106484992711462e-24
-0.4826835329687498	-1.640020752155848e-24
-0.4826224978124998	-1.6646623955720064e-24
-0.4825614626562498	-1.6844973067370758e-24
-0.4825004274999998	-1.699463553645684e-24
-0.4824393923437498	-1.70951339868936e-24
-0.4823783571874998	-1.7146133508678506e-24
-0.4823173220312498	-1.714744486694517e-24
-0.4822562868749998	-1.7099024007051874e-24
-0.4821952517187498	-1.7000971744863415e-24
-0.4821342165624998	-1.6853534832658285e-24
-0.4820731814062498	-1.665710453058027e-24
-0.4820121462499998	-1.6412215437835617e-24
-0.4819511110937498	-1.6119544546728795e-24
-0.4818900759374998	-1.577990906471842e-24
-0.4818290407812498	-1.5394263878264515e-24
-0.4817680056249998	-1.496369932833192e-24
-0.4817069704687498	-1.4489437963647933e-24
-0.4816459353124998	-1.3972830197546977e-24
-0.4815849001562498	-1.3415352188893695e-24
-0.4815238649999998	-1.2818599491395684e-24
-0.4814628298437498	-1.2184284363278533e-24
-0.4814017946874998	-1.1514229793134453e-24
-0.4813407595312498	-1.0810363151093091e-24
-0.4812797243749998	-1.0074714460840128e-24
-0.4812186892187498	-9.309404777747682e-25
-0.4811576540624998	-8.51664554652376e-25
-0.4810966189062498	-7.698728790927515e-25
-0.4810355837499998	-6.858020670159301e-25
-0.4809745485937498	-5.996957308958898e-25
-0.4809135134374998	-5.118032786263113e-25
-0.4808524782812498	-4.223798574287483e-25
-0.4807914431249998	-3.3168483930906274e-25
-0.4807304079687498	-2.3998167426148052e-25
-0.4806693728124998	-1.4753693311362046e-25
-0.4806083376562498	-5.461921810633988e-26
-0.4805473024999998	3.850092438709568e-26
-0.4804862673437498	1.315526547402777e-25
-0.4804252321874998	2.242649539403668e-25
-0.4803641970312498	3.163676228401067e-25
-0.4803031618749998	4.075923937667076e-25
-0.4802421267187498	4.976731304971569e-25
-0.4801810915624998	5.863471428171197e-25
-0.4801200564062498	6.733556559622488e-25
-0.4800590212499998	7.58444600742983e-25
-0.4799979860937498	8.413656116279219e-25
-0.4799369509374998	9.218762932275916e-25
-0.4798759157812498	9.9974148700206e-25
-0.4798148806249998	1.074733480329969e-24
-0.4797538454687498	1.1466329241709643e-24
-0.4796928103124998	1.2152296599066946e-24
-0.4796317751562498	1.2803226476438222e-24
-0.4795707399999998	1.3417215721662478e-24
-0.4795097048437498	1.3992465920421373e-24
-0.4794486696874998	1.4527290285113438e-24
-0.4793876345312498	1.5020123633228769e-24
-0.4793265993749998	1.5469519898082189e-24
-0.4792655642187498	1.5874161866265902e-24
-0.4792045290624998	1.6232861997810606e-24
-0.4791434939062498	1.6544567859829746e-24
-0.4790824587499998	1.6808364169187222e-24
-0.4790214235937498	1.702347533173115e-24
-0.4789603884374998	1.7189270141459358e-24
-0.4788993532812498	1.730525943887504e-24
-0.4788383181249998	1.7371101948030144e-24
-0.4787772829687498	1.7386603188984945e-24
-0.4787162478124998	1.7351715389761926e-24
-0.4786552126562498	1.726654006842275e-24
-0.4785941774999998	1.713132565471285e-24
-0.4785331423437498	1.6946467599513568e-24
-0.4784721071874998	1.6712507957360895e-24
-0.4784110720312498	1.6430132339278029e-24
-0.4783500368749998	1.610016941998478e-24
-0.4782890017187498	1.5723588097494126e-24
-0.4782279665624998	1.5301493262522984e-24
-0.4781669314062498	1.483512628879697e-24
-0.4781058962499998	1.4325856657355788e-24
-0.4780448610937498	1.3775181279275248e-24
-0.4779838259374998	1.3184720495851275e-24
-0.4779227907812498	1.2556209266001837e-24
-0.4778617556249998	1.1891497940257723e-24
-0.4778007204687498	1.1192541955183995e-24
-0.4777396853124998	1.0461398404211815e-24
-0.4776786501562498	9.700220083431345e-25
-0.4776176149999998	8.911248267849562e-25
-0.4775565798437498	8.096806599782365e-25
-0.4774955446874998	7.259293918215611e-25
-0.4774345095312498	6.401179389476376e-25
-0.4773734743749998	5.524990444411187e-25
-0.4773124392187498	4.633310614285689e-25
-0.4772514040624998	3.728769174425085e-25
-0.4771903689062498	2.8140324132083747e-25
-0.4771293337499998	1.89180000510725e-25
-0.4770682985937498	9.647912693970267e-26
-0.4770072634374998	3.574189973090196e-27
-0.4769462282812498	-8.926056162833309e-26
-0.4768851931249998	-1.8175120313030937e-25
-0.4768241579687498	-2.736246118494163e-25
-0.4767631228124998	-3.6460949740267106e-25
-0.4767020876562498	-4.544371482122544e-25
-0.4766410524999998	-5.428422485693548e-25
-0.4765800173437498	-6.295634941181522e-25
-0.4765189821874998	-7.143447874825512e-25
-0.4764579470312498	-7.969354718304421e-25
-0.4763969118749998	-8.770913000107766e-25
-0.4763358767187498	-9.545755245746763e-25
-0.4762748415624998	-1.029158809947949e-24
-0.4762138064062498	-1.1006206507381383e-24
-0.4761527712499998	-1.1687497281514884e-24
-0.4760917360937498	-1.233344371171186e-24
-0.4760307009374998	-1.294213520456827e-24
-0.4759696657812498	-1.351177064465277e-24
-0.4759086306249998	-1.4040663449104168e-24
-0.4758475954687498	-1.452724862404212e-24
-0.4757865603124998	-1.497008583305108e-24
-0.4757255251562498	-1.5367863275781118e-24
-0.4756644899999998	-1.5719404324001638e-24
-0.4756034548437498	-1.602366749150178e-24
-0.4755424196874998	-1.6279751925985346e-24
-0.4754813845312498	-1.6486900306888278e-24
-0.4754203493749998	-1.6644499032162067e-24
-0.4753593142187498	-1.6752082276519475e-24
-0.4752982790624998	-1.680933250037572e-24
-0.4752372439062498	-1.6816081445908943e-24
-0.4751762087499998	-1.677231080850603e-24
-0.4751151735937498	-1.6678152344503654e-24
-0.4750541384374998	-1.6533887628916027e-24
-0.4749931032812498	-1.6339947169006893e-24
-0.4749320681249998	-1.6096909110562044e-24
-0.4748710329687498	-1.5805497978816156e-24
-0.4748099978124998	-1.5466582059948091e-24
-0.4747489626562498	-1.508117118235541e-24
-0.4746879274999998	-1.4650413993174613e-24
-0.4746268923437498	-1.4175593832080674e-24
-0.4745658571874998	-1.3658126339307759e-24
-0.4745048220312498	-1.3099553257845925e-24
-0.4744437868749998	-1.2501540524451535e-24
-0.4743827517187498	-1.1865871066359222e-24
-0.4743217165624998	-1.1194440099912093e-24
-0.4742606814062498	-1.048925178820416e-24
-0.4741996462499998	-9.752408896358681e-25
-0.4741386110937498	-8.986111386274528e-25
-0.4740775759374998	-8.192646137800636e-25
-0.4740165407812498	-7.374382516380316e-25
-0.4739555056249998	-6.533764781288008e-25
-0.4738944704687498	-5.673303877546887e-25
-0.4738334353124998	-4.795571768187316e-25
-0.4737724001562498	-3.903191135090145e-25
-0.4737113649999998	-2.9988325226495444e-25
-0.4736503298437498	-2.0851985248224577e-25
-0.4735892946874998	-1.1650249952317008e-25
-0.4735282595312498	-2.4106675027631786e-26
-0.4734672243749998	6.839124826421699e-26
-0.4734061892187498	1.6071378288341359e-25
-0.4733451540624998	2.5258445536233244e-25
-0.4732841189062498	3.437278130151815e-25
-0.4732230837499998	4.338704057112691e-25
-0.4731620485937498	5.2274160735448865e-25
-0.4731010134374998	6.10074785060837e-25
-0.4730399782812498	6.956074541365079e-25
-0.4729789431249998	7.790822540129805e-25
-0.4729179079687498	8.602485546537833e-25
-0.4728568728124998	9.388616106096792e-25
-0.4727958376562498	1.0146847607550902e-24
-0.4727348024999998	1.0874894917917284e-24
-0.4726737673437498	1.157055937798239e-24
-0.4726127321874998	1.2231740745120962e-24
-0.4725516970312498	1.2856439039901915e-24
-0.4724906618749998	1.3442763438983056e-24
-0.4724296267187498	1.3988934928982418e-24
-0.4723685915624998	1.449329598060249e-24
-0.4723075564062498	1.495431070009352e-24
-0.4722465212499998	1.5370573382507504e-24
-0.4721854860937498	1.5740810882100874e-24
-0.4721244509374998	1.6063886010859525e-24
-0.4720634157812498	1.633880361467814e-24
-0.4720023806249998	1.656470963200815e-24
-0.4719413454687498	1.674089780278578e-24
-0.4718803103124998	1.6866809001412556e-24
-0.4718192751562498	1.6942033929472173e-24
-0.4717582399999998	1.6966315147015818e-24
-0.4716972048437498	1.6939546415017624e-24
